"","x"
"1",0.126300272638396
"2",0
"3",0.705054071694872
"4",0.985726746178428
"5",0
"6",1.70692324719113e-07
"7",0.0848273703225408
"8",0.278832962259731
"9",0.201095630862088
"10",0.565782461088933
"11",0.186052547288397
"12",0.247146513504597
"13",1.60270685611863e-11
"14",3.11314953815867e-08
"15",0.616561154875115
"16",0.540952739947488
"17",3.50257133407972e-07
"18",6.50382014910633e-09
"19",1.756372824957e-13
"20",0.625638537924324
"21",0.305975078574209
"22",0.000701557252093754
"23",0
"24",0.0955221706919517
"25",2.48346298922231e-05
"26",0.150503352409494
"27",0.0970446361669998
"28",0.99234836389104
"29",0.712540572789442
"30",0
"31",0.330199298114157
"32",0.00479177148770848
"33",0.775632888968384
"34",0.90771300710372
"35",0.630456355902892
"36",0.999131519786135
"37",0.00480603510616118
"38",4.67725046130463e-05
"39",0.722430338414824
"40",0.425299487783802
"41",0.504407552219256
"42",0.819902709624403
"43",0.000566620942681006
"44",0.761573858095647
"45",0.0205356526366288
"46",0.0363117524185791
"47",0.767841716231662
"48",0.972028446731988
"49",3.21964677141295e-15
"50",0.00916367799865003
"51",0.00729710937786199
"52",0.0203368174086399
"53",0.197195143315303
"54",0.413384521683964
"55",3.15585262933293e-06
"56",2.81208787478171e-07
"57",0.681245492582778
"58",0.239264879165403
"59",2.63752031921527e-05
"60",0.0931891809248178
"61",0.217771795672021
"62",0.0237491764287854
"63",0.54016956947852
"64",0.475851674922322
"65",0.621331919727653
"66",0.839685196800551
"67",0.0787630184058929
"68",0.333669711055492
"69",0.978275088027933
"70",0.335751560992082
"71",0.83993233448864
"72",0.675899187500509
"73",0.000161338372574926
"74",0.183565284214828
"75",0.109498621774856
"76",0
"77",2.35156996652996e-06
"78",7.96361349930663e-06
"79",0.000835695216632626
"80",0.685021597400967
"81",0.465346675086462
"82",4.59281401798961e-09
"83",0.000339520751960087
"84",0.246444505581959
"85",0.248259576604752
"86",0.988969451902601
"87",0.931460501551059
"88",0.0867676589694746
"89",0.904365754012812
"90",0.136855582284721
"91",0.27534005816264
"92",0.064893624198733
"93",0.696895938147575
"94",0.739973981799895
"95",0.680366155899668
"96",0.496796366291447
"97",0
"98",0.755107492277213
"99",0.709320456943549
"100",0.141028589199482
"101",0.950764193941742
"102",0.943107771437072
"103",0.578632000909802
"104",0.695560396017086
"105",0.626752528960191
"106",0.671200172733851
"107",0.102014625485094
"108",0.00730771344149461
"109",0.0208040002430699
"110",0
"111",0.128324875045437
"112",0.24548895958329
"113",0.0529882753968515
"114",0.24690251754092
"115",0.801852431591845
"116",0.497310307538953
"117",0.697215639624568
"118",0.0687754360842082
"119",3.00173774725465e-10
"120",0.138176574773238
"121",0.299160899261855
"122",3.77296287545903e-07
"123",0
"124",0.959870513593549
"125",0.233968447818651
"126",0.161047090795445
"127",0.124090883525637
"128",0.863877843199889
"129",0.839798604343417
"130",0.471965002945612
"131",0.893216023796847
"132",0.923054635329908
"133",0.107904674797025
"134",0.488364402181014
"135",5.26101384679123e-12
"136",1.20200346138688e-05
"137",0.00310696099153429
"138",0.928013415664622
"139",0.0611027931343514
"140",0.995580435150979
"141",0.658279686614171
"142",2.1094237467878e-15
"143",0.000105062302919179
"144",0.274108369270002
"145",0.517136191840435
"146",0.525856564868103
"147",0.787246985304511
"148",0.814421480036827
"149",0.677919660115235
"150",0.434133266967125
"151",0.179414665759301
"152",0.916893715189553
"153",0.00391122638264141
"154",0.206609299668116
"155",4.9194190473445e-06
"156",0.010525520401602
"157",0.363433943757725
"158",0.59514079687207
"159",0.958597094653945
"160",0.924185304167051
"161",0.804068080291823
"162",0.46429051673117
"163",0.00181239062382033
"164",0
"165",0.332786635955291
"166",0.000473796869089327
"167",0
"168",0
"169",1.65930114615076e-06
"170",0.264445277110028
"171",0.532021972970068
"172",0.101438559546133
"173",8.03534258193572e-05
"174",0.217606319080734
"175",1.72450942415026e-12
"176",0.520620888152721
"177",0.131244169713216
"178",0.00382964052296519
"179",0.886286303468708
"180",0.0916417634183431
"181",0.000567283409502295
"182",0.00104031814226846
"183",0.00882161340847099
"184",0.0520253147664432
"185",0.34623567185778
"186",0.508156303380978
"187",0.0883423706339047
"188",0.313726531503899
"189",7.0784647841271e-05
"190",0.650666556564741
"191",0.337706997434715
"192",0.00220349129349773
"193",0.535812496224341
"194",0.281070665775256
"195",0.261966345793454
"196",0.102064811164031
"197",0.25596346995954
"198",2.36833490374622e-07
"199",0.0677209050162479
"200",0.0329469171348282
"201",0.0183123905410667
"202",0.160235376984628
"203",0.343003166201905
"204",0.586398478868043
"205",0.0315985188915467
"206",0.867806747103319
"207",0.196241837553551
"208",0.0141664997424842
"209",0.189340627630818
"210",0.00045549526496691
"211",0.0218624490662674
"212",5.2250066939763e-08
"213",0.00196246774936537
"214",0.956290155670667
"215",0
"216",5.97083441621349e-05
"217",5.6903559642052e-10
"218",8.8716737289829e-09
"219",0.034197232931018
"220",0
"221",1.07418641048795e-06
"222",0.00354635650518875
"223",0.00031696887179411
"224",1.29674049276218e-13
"225",0.0568105512384072
"226",0.124226745924199
"227",0.268732433341259
"228",0.52317305329801
"229",3.06442134112572e-07
"230",1.11055247442593e-07
"231",1.60174462582319e-09
"232",0.00621578859641225
"233",0.0164562606803302
"234",0.202933133882592
"235",1.20704590766962e-09
"236",1.90176413061849e-07
"237",0.00133022796864246
"238",0.000505479353474003
"239",0.20239344577043
"240",0.142083572062955
"241",0.000378015168881252
"242",0.0836243567292575
"243",0.0257867322085278
"244",0.0470512397980178
"245",0.362311814306174
"246",0.00287788417475132
"247",0.508086027947072
"248",0.400982457328699
"249",9.11721305008051e-07
"250",0
"251",0.0390411086113942
"252",0.930331903470338
"253",0.032722442791961
"254",0.261150343587211
"255",0.645321634822235
"256",1.11022302462516e-16
"257",0
"258",0.0622152299168863
"259",0.830678745812341
"260",0
"261",0.0635217776722077
"262",0.375146363059421
"263",0.955246636328416
"264",3.70116060022241e-09
"265",5.47306168496853e-06
"266",0.0090420805115532
"267",0.29785922866706
"268",0.0120415371220279
"269",0.188964240331916
"270",0.0714789574369175
"271",0.00815099008552678
"272",0
"273",0
"274",0.0323342300987526
"275",0.00449134113637062
"276",0.335552443523768
"277",0
"278",5.23197662505304e-06
"279",0.876961890322198
"280",0
"281",0.0774612423701464
"282",0.00320331087496228
"283",0.210126338766358
"284",0.0477700283314801
"285",0.158295027750742
"286",0
"287",0.0227894069325169
"288",0.0307687747588941
"289",0.347968228282729
"290",0.000735513659930076
"291",0.0923768456738613
"292",0.132718540265842
"293",0.541405561926972
"294",0.297281292914808
"295",0.54326263472245
"296",0.0130246135023163
"297",0.159840349251021
"298",7.98801889245748e-06
"299",0.132632229059007
"300",5.25220089642175e-10
"301",2.40238466886478e-06
"302",0.181416199043501
"303",0.00288716675258993
"304",0.0875253990103652
"305",0.0944021984579974
"306",0
"307",0.101184855313467
"308",9.4544757520687e-06
"309",0
"310",0.000347631151109251
"311",0
"312",1.96386240602919e-11
"313",0.184676089472127
"314",0
"315",0.1397171478872
"316",0.00462377993098617
"317",1.0934891014891e-07
"318",8.05244759760626e-13
"319",0.00052150686509056
"320",0.205867270088205
"321",1.64505397715065e-05
"322",0.323412979534278
"323",0.0666309505270331
"324",0.0403495536576503
"325",0.18062701462199
"326",1.40725012531817e-07
"327",0.0413384559246259
"328",0.0809140912292381
"329",8.97268853555788e-05
"330",1.60982097652251e-08
"331",0
"332",0.00652221649338369
"333",0
"334",4.76396699866655e-13
"335",4.51178763238858e-08
"336",0.0683599119204995
"337",0
"338",7.5449646530501e-12
"339",0
"340",0
"341",8.1991126093639e-05
"342",0.0431459181493353
"343",0.580415782825685
"344",0.000870191109187179
"345",0.533461413852979
"346",0.194868045887713
"347",0.371119865260816
"348",0.5170614112273
"349",0.000998482249753851
"350",2.2562525658687e-05
"351",0.0126177204004947
"352",0.667330462674347
"353",0.474817089909148
"354",0.795180430906678
"355",0.919968885312019
"356",0.662100073860441
"357",0.678482084996444
"358",0.127984440203256
"359",0.473152949132019
"360",0.441289295452701
"361",0.0123042122684306
"362",3.5216448895925e-06
"363",0.492509190222763
"364",0.0159119204112009
"365",0.501412994408116
"366",0.984852802817899
"367",0.601254031886857
"368",0.23103947685629
"369",0.695919970711928
"370",0.769156392247777
"371",0.418169273184086
"372",0.445293676141828
"373",0.5084859396222
"374",0.737973917571589
"375",0.186814333213903
"376",0.268841554625463
"377",0.377689086506511
"378",0.035237254950879
"379",0.329521710140926
"380",0.0630953099312122
"381",0.00618093929587393
"382",0.911965287746107
"383",0.055583124093773
"384",0.67130610571869
"385",0.0462500744399383
"386",0.90530261038665
"387",0.998367487998631
"388",0.145459915553144
"389",0.052134419959959
"390",0.29073455512223
"391",0.0718170183621777
"392",0.00187828236173082
"393",0.65772650421797
"394",0.0129961962794919
"395",3.90336651889811e-11
"396",1.50825119060727e-09
"397",0.686149088133706
"398",0.797472753960932
"399",0.244701251097489
"400",0.0977437566392381
"401",0.0426610617214824
"402",0.0970312089989842
"403",0.0164452464996289
"404",0.297122686690482
"405",0.111690478063127
"406",0.0702858953873425
"407",0.120303522993671
"408",0.00011841218174935
"409",0.000806832774284616
"410",0
"411",0.0365101555991878
"412",0.383057473213744
"413",0.0155094986921915
"414",0.121696372109478
"415",0
"416",8.12345520473379e-05
"417",0.358980159765616
"418",0.0125122818090696
"419",4.12739176169907e-10
"420",0.00565478837722355
"421",0.0795806289266443
"422",7.87871519136729e-08
"423",0.00360191849379976
"424",0.19168405374796
"425",1.11022302462516e-16
"426",6.0461302631154e-11
"427",3.03752245578437e-10
"428",0
"429",7.55048545908465e-09
"430",0
"431",0
"432",8.4306873482376e-08
"433",0.0913905237871373
"434",3.08420690653399e-07
"435",6.34140739919076e-10
"436",1.774136393351e-13
"437",6.09718417021732e-05
"438",0
"439",2.26015223203646e-08
"440",1.25819367535751e-06
"441",1.42561480864778e-06
"442",2.97951663341678e-11
"443",0.000305569631794178
"444",0.209609859611023
"445",0.00408474418007698
"446",1.49724677100949e-12
"447",0.0233037353928074
"448",0.174279225325738
"449",0
"450",5.53124158697571e-08
"451",0.000388669915892814
"452",0.00162882131768638
"453",0
"454",0
"455",0.000476340676156206
"456",3.80151654599814e-08
"457",1.05977413733527e-07
"458",0
"459",0
"460",0.500209920635164
"461",0.00187755520849253
"462",0.176079690928174
"463",0.237566574900138
"464",0.303403389435405
"465",0.0664428234965089
"466",0.390786738648887
"467",0.12517901354319
"468",0
"469",0.419286280217308
"470",0
"471",0
"472",0
"473",0
"474",0
"475",5.55111512312578e-16
"476",2.81222965548e-05
"477",0
"478",0
"479",0
"480",0
"481",0
"482",0
"483",0
"484",0
"485",0
"486",0
"487",0
"488",0
"489",0.594493838251581
"490",0.555870447106149
"491",6.3948846218409e-14
"492",4.10782519111308e-15
"493",0
"494",0
"495",0
"496",0
"497",0.000790651541641596
"498",6.66133814775094e-16
"499",4.11508138675742e-09
"500",0
"501",3.27665672372746e-11
"502",0.47451186736084
"503",0.0626168095456114
"504",0.000317030658780637
"505",2.29799702744504e-06
"506",0.37357468156417
"507",3.42545986390386e-05
"508",0.000434863777279526
"509",0.00310703818897051
"510",0
"511",3.27901825588617e-05
"512",0.00282293088363561
"513",0.00595859594342529
"514",3.48282513940035e-11
"515",0
"516",5.78527560302078e-08
"517",0.41228125434405
"518",0.239252982067662
"519",0.195673989169349
"520",0.072376087747562
"521",8.23119350457091e-13
"522",0
"523",2.22044604925031e-16
"524",0.992330303426301
"525",0
"526",1.78379903603698e-06
"527",0.00317685000092871
"528",2.9706271304164e-05
"529",2.8643754035329e-14
"530",0.177174517910573
"531",6.242051320271e-11
"532",7.7715611723761e-16
"533",0.0090257381200336
"534",1.24344978758018e-14
"535",0.0257263307447018
"536",0.0199154845551578
"537",6.62742805523919e-07
"538",2.44742607911075e-05
"539",0.371641049108543
"540",0.630611298608571
"541",1.54000640018026e-08
"542",8.63478588630784e-09
"543",0.943726000090455
"544",0.0525819221352473
"545",0.868077151071434
"546",0.161097500228513
"547",0
"548",0.000313282161217177
"549",0.0444388990904161
"550",0
"551",0.000169584993044647
"552",5.43206556291587e-07
"553",0.00977838549150067
"554",1.66557817538049e-08
"555",0
"556",0.00079786916963287
"557",2.72251665656142e-10
"558",1.01615827641233e-07
"559",2.54508726220681e-05
"560",0.000188656149516353
"561",2.31643567837336e-05
"562",0
"563",0
"564",0
"565",0.000602119451705296
"566",0.00862118545205226
"567",0.106697794715067
"568",0
"569",0
"570",1.0325074129014e-14
"571",0.398502052136544
"572",3.41012518223494e-09
"573",0.0151515992427893
"574",0.211881852492359
"575",7.22625292937096e-11
"576",0.00319858066582723
"577",0
"578",4.06674693920195e-13
"579",0.000381866188760571
"580",0.71552032992432
"581",0
"582",0
"583",5.50115508701765e-13
"584",1.36990419008498e-12
"585",1.96370321459138e-06
"586",0
"587",6.55031584528842e-15
"588",2.30915215837513e-08
"589",2.77869934736108e-05
"590",0
"591",0.000878331146778488
"592",0
"593",1.49413814654054e-12
"594",0
"595",0
"596",0
"597",0
"598",0
"599",0
"600",0
"601",0
"602",5.79536418854332e-14
"603",0
"604",0
"605",0
"606",2.76059511805649e-07
"607",0
"608",0
"609",0
"610",0
"611",5.5066395887593e-11
"612",6.50779430344528e-11
"613",0
"614",0
"615",0.166500197252042
"616",8.11360541441708e-06
"617",0
"618",3.30285538963082e-06
"619",0
"620",0
"621",0
"622",0
"623",0
"624",0
"625",0.0603013575310557
"626",0
"627",0
"628",0
"629",0.000959137632839502
"630",0.00596140984442217
"631",0
"632",9.43689570931383e-15
"633",0.0357240244579592
"634",2.88657986402541e-15
"635",0.000750347384776417
"636",0.0202625857076004
"637",0
"638",4.44089209850063e-16
"639",6.70383821883558e-05
"640",0
"641",0.000554708511586788
"642",0
"643",0
"644",0
"645",1.11022302462516e-16
"646",0
"647",0
"648",0
"649",0.112014152360549
"650",0
"651",0
"652",0.858148528010019
"653",0
"654",0
"655",0.0160406533559802
"656",0.00151141574009928
"657",3.16522925425389e-07
"658",0.479933899719419
"659",0
"660",0
"661",0
"662",0
"663",6.8215449289255e-08
"664",6.71012684760885e-06
"665",0
"666",0
"667",5.6621374255883e-15
"668",0.00398508464279168
"669",0
"670",0
"671",0
"672",0
"673",0
"674",0
"675",0.0720864660346558
"676",0
"677",0
"678",0
"679",0.0158843796169237
"680",5.78039306603495e-05
"681",0.150035344032379
"682",0
"683",0
"684",0
"685",0.118303623162813
"686",9.25523532114836e-05
"687",0.00684632537355001
"688",0.111058808438384
"689",1.18743967991719e-06
"690",3.91797705390218e-13
"691",0.0809037350892274
"692",0.706514806991443
"693",0.385783975089606
"694",0
"695",4.42148055945779e-08
"696",0.943053089598532
"697",1.21183079682119e-07
"698",0.267451491758399
"699",0
"700",0
"701",0
"702",0
"703",0.0245241035141429
"704",0.28121181384997
"705",0.0264932820766833
"706",0.313864941108414
"707",0
"708",0
"709",1.08801856413265e-13
"710",6.66133814775094e-16
"711",0.718294802085669
"712",0.0832939832453197
"713",0.0272752992163278
"714",0.0904873417479631
"715",0.851414046415649
"716",0.186905535726889
"717",0
"718",0.503620356980645
"719",2.75454148379595e-08
"720",0.00702704181965796
"721",0.0833171067168669
"722",0.292521139222281
"723",0
"724",0.0932963442593338
"725",1.35321676086875e-09
"726",0.285536549605806
"727",0
"728",0.071765926394131
"729",0.00704860035325772
"730",8.40418665437603e-07
"731",0
"732",0
"733",0
"734",0.000167539566452657
"735",0.00137003669375246
"736",0
"737",0
"738",0
"739",0
"740",0.000493900949667614
"741",1.11022302462516e-16
"742",0
"743",0
"744",0
"745",2.77555756156289e-15
"746",0.000437399313809705
"747",0
"748",1.74320784385174e-06
"749",0
"750",1.00869515651247e-06
"751",3.35731442646647e-13
"752",0
"753",1.64313007644523e-14
"754",0.949621702885645
"755",0
"756",4.52193837929826e-11
"757",2.00581329323768e-10
"758",0.0850784905316608
"759",0.689460790412251
"760",0.105055950075793
"761",0.0559487822790504
"762",8.6879303751175e-10
"763",1.70074196281789e-06
"764",5.55111512312578e-16
"765",0.0921345864482436
"766",0.0330159828389377
"767",0.0248184631093371
"768",0.0103944552195011
"769",2.22044604925031e-16
"770",0
"771",3.55867060264359e-08
"772",5.55111512312578e-16
"773",0.0251993460392417
"774",0.11276545100031
"775",4.99976837708971e-10
"776",0.000270466904056521
"777",1.45611083024466e-06
"778",0.203609386136643
"779",0.024839029296628
"780",0.019647541237007
"781",0.908484201566298
"782",0.49636531821568
"783",0.671469719756025
"784",0
"785",0
"786",0.000404419604575379
"787",4.74384193671629e-06
"788",0.0220515340351832
"789",0.728299065632034
"790",0.000331107522240193
"791",0.00378619248323786
"792",0.0152534795215693
"793",0.00105401756764301
"794",0.985646720884256
"795",7.00012270371531e-11
"796",4.49126569268543e-08
"797",0.000399812855852999
"798",0
"799",0
"800",0.000276031365229912
"801",0.000630969129351122
"802",0.135512022986098
"803",2.09832151654155e-14
"804",0
"805",0
"806",0.110782831569364
"807",1.82420745176159e-11
"808",0.187510486465709
"809",0
"810",0
"811",0
"812",0.414620328470831
"813",0.173464299078944
"814",0.000163858444976128
"815",0.11832051015199
"816",0.133366129935087
"817",1.52922119411869e-12
"818",0.119401563440919
"819",0
"820",0.0398937543059218
"821",0
"822",0.875278181417772
"823",0.023874576915912
"824",0.187486798388857
"825",0
"826",0.00231091830104835
"827",0.0239840417274599
"828",2.68656452564464e-05
"829",8.37829805533374e-12
"830",5.49875700528446e-11
"831",1.53674850622565e-11
"832",0.0132402169071831
"833",0.00370687771335632
"834",1.21760724419717e-05
"835",0
"836",6.47252291691158e-05
"837",0.0341574387397179
"838",0.00404999864358158
"839",0.861005367604351
"840",0
"841",0
"842",0.0571989922793605
"843",0.00090566356538202
"844",0.590244395880699
"845",0
"846",0
"847",0
"848",0
"849",0
"850",0
"851",3.17523785042795e-14
"852",0.645706741613734
"853",0.0128795675043978
"854",1.19068484982776e-06
"855",0.0263943705379334
"856",0
"857",0
"858",0.389236637941833
"859",0
"860",0.000203304631959833
"861",0
"862",0
"863",0
"864",0
"865",0.00433511454651736
"866",0.172445896515148
"867",0
"868",0
"869",0.0392336137042106
"870",0
"871",8.94839757847876e-14
"872",0.00129313343748971
"873",0.0333622634496837
"874",0.410756508704941
"875",0.352091345294675
"876",1.04366422837288e-07
"877",0
"878",1.22124532708767e-14
"879",2.87485590888537e-11
"880",1.68901557295875e-06
"881",4.34989642666972e-05
"882",0.361893815297687
"883",1.2636669488586e-11
"884",3.29577435231876e-07
"885",0.0556934437531446
"886",1.06864593840683e-08
"887",0.0256647949135987
"888",0.00128558514970512
"889",0.638597407533773
"890",2.22599716437344e-13
"891",0.0339337529372539
"892",0.209727908342237
"893",1.0116749216138e-08
"894",2.15120254942747e-10
"895",0.00173979501561106
"896",0.000348996575910587
"897",3.76365605347928e-14
"898",0.0296143008570814
"899",0.0641811505299124
"900",0
"901",0.0170300297216391
"902",0.207611655633934
"903",0.109372987979779
"904",5.32315757730828e-05
"905",2.52859831850749e-07
"906",3.35287353436797e-14
"907",0
"908",0.420753236466363
"909",2.42908015923859e-09
"910",0
"911",0
"912",0.00114717850578117
"913",0
"914",4.53487358775817e-10
"915",0
"916",0
"917",0.122348534224607
"918",0.111131922143646
"919",0.00116487985033875
"920",0
"921",0
"922",0.909460006943248
"923",0.00300863557157538
"924",0
"925",0.0179074477267533
"926",0
"927",0.344312118845425
"928",1.24325497674604e-08
"929",0.0671674356527237
"930",0
"931",0.0967434686650948
"932",0.0822485066768797
"933",0.449964281443013
"934",0.000386346707410667
"935",0.523922396444193
"936",0.454993793774462
"937",0.019418242946459
"938",0
"939",0.23412803821135
"940",1.5490602023327e-08
"941",0.0315616013549914
"942",3.56223050547166e-05
"943",0.000679064432113297
"944",0
"945",1.14055591871054e-06
"946",1.41405856945997e-06
"947",9.44277989134434e-12
"948",0
"949",0
"950",4.06853895906778e-05
"951",3.86373251803906e-06
"952",0.139822403830952
"953",0.00445062047429334
"954",0
"955",1.9083699764888e-06
"956",0.0821648628473419
"957",0
"958",1.77353098873567e-08
"959",0.0230770036927059
"960",6.75934719307492e-09
"961",0
"962",0.229954806848081
"963",0.000503695965753059
"964",0.878865936773878
"965",0
"966",5.55111512312578e-16
"967",8.41366900150575e-07
"968",5.37541833378619e-07
"969",0.0129444808550385
"970",0.0352935615173737
"971",0.226049100016024
"972",0.00186960108633183
"973",0.199045282186096
"974",0
"975",0.104772097556614
"976",0
"977",9.52349310523459e-13
"978",0
"979",0
"980",1.1960889723106e-08
"981",0
"982",4.39710444721797e-08
"983",5.27836567121298e-07
"984",2.19824158875781e-14
"985",6.00069774725487e-06
"986",0
"987",0.0330749558838987
"988",0.51572201086507
"989",0
"990",0
"991",0
"992",0
"993",4.64073224293315e-14
"994",1.56541446472147e-13
"995",0.287871150642966
"996",0.0540671647448229
"997",0.429981401425023
"998",2.87192492010035e-12
"999",0
"1000",0.0742070654642986
"1001",1.08708453350204e-09
"1002",0.086422417977324
"1003",0.710508942923503
"1004",1.11022302462516e-16
"1005",0.00226716371818703
"1006",0.00521340748209864
"1007",1.78951261142757e-07
"1008",0.00602282350995342
"1009",0.282919807090431
"1010",1.15463626989554e-05
"1011",0.00177798204265667
"1012",0.00458714440662844
"1013",1.49940287519357e-07
"1014",0
"1015",0
"1016",0.00959119359036031
"1017",3.91097055296719e-07
"1018",0
"1019",0.243466643920842
"1020",0.233673726663922
"1021",9.80679901174675e-06
"1022",0.0108201965524115
"1023",0.0235885395671478
"1024",0.00596228379560582
"1025",0.068196107942344
"1026",0.00263924659355108
"1027",0.0501270485249723
"1028",0.0523559838846295
"1029",0
"1030",0.274002566865182
"1031",0.978490238892687
"1032",3.85322995732906e-10
"1033",0
"1034",0
"1035",1.19682042054592e-13
"1036",1.0298428776423e-12
"1037",0
"1038",2.23283613820513e-11
"1039",0.00125799811476834
"1040",0
"1041",0
"1042",0
"1043",0
"1044",0
"1045",0
"1046",2.3268414429678e-06
"1047",0.000502442701045602
"1048",0
"1049",0
"1050",0.630188035136528
"1051",0
"1052",0
"1053",4.97622362871653e-07
"1054",0.184713363156938
"1055",0
"1056",0
"1057",0.145341899511018
"1058",0
"1059",0
"1060",3.10862446895044e-15
"1061",0
"1062",0
"1063",1.22124532708767e-14
"1064",0
"1065",0.0391107977514523
"1066",5.73866287822966e-10
"1067",0.000154568941650557
"1068",0.634484303574562
"1069",0.024318747610965
"1070",0
"1071",3.18424807754791e-05
"1072",6.13200934473923e-09
"1073",0.941225335437282
"1074",0.187297872883451
"1075",0
"1076",0
"1077",0.640610989353328
"1078",0.780682913632692
"1079",0.0647030599679146
"1080",0.000974708803299529
"1081",0.0570787017523745
"1082",0.0118077065910998
"1083",0
"1084",0.00137668536054181
"1085",0.00207010246837236
"1086",0.0850474455136625
"1087",0.564495012580171
"1088",0.353109571060207
"1089",0.00325828447304
"1090",4.95257086630119e-06
"1091",0.0653593300310265
"1092",0.24735318321529
"1093",1.00113140000246e-10
"1094",2.29449792499281e-12
"1095",0
"1096",2.31838714892518e-09
"1097",0
"1098",0
"1099",0
"1100",0.00409127483525074
"1101",0.424533008911788
"1102",0.0486489445599224
"1103",0.214452874375378
"1104",0.0208209249027195
"1105",0.00587842607969202
"1106",0.389454195728957
"1107",0.0161337683433703
"1108",0.273066123915346
"1109",0.268530327500067
"1110",0.483976677371683
"1111",0.16831142903119
"1112",0.686225821461883
"1113",0.0731499378880461
"1114",0.735397248205306
"1115",0.0024554473288243
"1116",2.7080948204361e-05
"1117",0
"1118",0.113581172562847
"1119",0.290751304591663
"1120",0.386531661047679
"1121",1.79416814738431e-10
"1122",0.0324262527413722
"1123",0.552999912559848
"1124",0.228676901169224
"1125",0.255241337075157
"1126",0.678982644655163
"1127",0.357005428079026
"1128",0.0513044004786736
"1129",0.425914416470879
"1130",0.0938311809309109
"1131",0.0965850746661225
"1132",0.00991309105544014
"1133",0.00140626810960232
"1134",0.00744709374744845
"1135",0.309509140851276
"1136",0.0170231381142031
"1137",0.0879886809656572
"1138",0.0971458823609025
"1139",0
"1140",0.000723347413685516
"1141",0.318899196069281
"1142",0.115932745081941
"1143",0.681413802618111
"1144",0.246527832334742
"1145",5.6732097978629e-05
"1146",0.146236408820095
"1147",0
"1148",0.184635251900617
"1149",0.419019180080672
"1150",0.000476445601660047
"1151",0.876446562753465
"1152",0
"1153",0.000765110317797912
"1154",0.162662678082423
"1155",0.247504239056784
"1156",0.848153635984723
"1157",0.00663531848154342
"1158",0.55344615020486
"1159",0.02194265332635
"1160",0
"1161",0
"1162",0.0157625637444188
"1163",0.0909433186519317
"1164",0.0274104460918998
"1165",0.815762453586502
"1166",0
"1167",0
"1168",8.88178419700125e-16
"1169",0
"1170",0
"1171",0
"1172",0.038194657124654
"1173",2.54241072639161e-14
"1174",0.48124880879896
"1175",0.00749495630419805
"1176",0.00375503882341044
"1177",7.06354776225382e-07
"1178",0.0788448867684965
"1179",0
"1180",0.00291466626415748
"1181",0
"1182",0.00463152371717512
"1183",0.755377686662037
"1184",0.525699060239194
"1185",0.742565064166745
"1186",0.0439067162815531
"1187",5.83089132533132e-13
"1188",0.301024482204961
"1189",0.185164037589638
"1190",0.0238732027204922
"1191",0.569861718063155
"1192",0.311264556964816
"1193",0.020080850664453
"1194",3.23088888976031e-09
"1195",0.0157694136234076
"1196",0.0600023804369215
"1197",0.043535078110569
"1198",0.181066159912207
"1199",0.101643720278152
"1200",0.00187020514240499
"1201",0.00121116639756413
"1202",0.00884465695410497
"1203",0.653020826200844
"1204",0.459566526536272
"1205",0.000208075051420176
"1206",0.00577101124931401
"1207",0.232074400954727
"1208",0.0576227486543589
"1209",0.00487782831859906
"1210",0.0325091693038742
"1211",0
"1212",0.333252545753039
"1213",8.58618495547248e-06
"1214",4.73708849924037e-10
"1215",0.000370143022273783
"1216",0.0129930410457837
"1217",0
"1218",0.00145467528519494
"1219",0.0692085505873166
"1220",0.347462627715073
"1221",0.142600626934859
"1222",0
"1223",3.53319172419209e-06
"1224",0.0402036327081781
"1225",0.020775357756967
"1226",0.737877614360231
"1227",0.374897378973138
"1228",0
"1229",0
"1230",0.00554400241629593
"1231",0.0412603466644287
"1232",0.000707367532967962
"1233",7.57652285354737e-09
"1234",1.21358487431555e-05
"1235",0
"1236",0.1451440905286
"1237",0.53240187436287
"1238",0
"1239",4.93889762853694e-06
"1240",0
"1241",0
"1242",0.0469777111195566
"1243",0.0405908036750858
"1244",0.534601118207578
"1245",1.07314614983256e-06
"1246",5.79662984279139e-10
"1247",0
"1248",0
"1249",0.000115551953319804
"1250",0.0717752142295541
"1251",0
"1252",0
"1253",0.278483341365047
"1254",0
"1255",0.969061776237284
"1256",0.00427556938287788
"1257",0.528886370629579
"1258",4.55191440096314e-15
"1259",0
"1260",0.00525682393604554
"1261",0.00418425816671897
"1262",0.895123704504203
"1263",0.21161787229835
"1264",0.148704201903992
"1265",0.192433434692614
"1266",0.00741938013008947
"1267",0.145640221127292
"1268",0.727380511815086
"1269",0.021331392778986
"1270",0.181023418980957
"1271",0.2394950278048
"1272",0.955279224957447
"1273",1.5236092596238e-05
"1274",0.603950126160184
"1275",0.936168665262006
"1276",0.0181725910557392
"1277",3.40769650203354e-05
"1278",0.605423617710244
"1279",4.52749080448456e-08
"1280",0.00154172021786503
"1281",0.397299221715369
"1282",6.78169008494489e-06
"1283",0.142784327800854
"1284",0
"1285",0
"1286",5.93502184065287e-08
"1287",1.307886243751e-09
"1288",0.419988742319391
"1289",0
"1290",0
"1291",0
"1292",0
"1293",0.302003276826785
"1294",0
"1295",0.000725696535495368
"1296",5.01931829433033e-13
"1297",0
"1298",0
"1299",9.9051564244057e-06
"1300",2.8599345114344e-13
"1301",0.023009985354794
"1302",9.62563362350011e-14
"1303",0
"1304",2.22044604925031e-16
"1305",0.00859146785602016
"1306",1.54099938365349e-08
"1307",7.95889534499494e-07
"1308",0
"1309",0
"1310",0.0660212480182794
"1311",0.00562143508662305
"1312",0.163063779070702
"1313",0
"1314",0
"1315",4.10782519111308e-15
"1316",0.034614742027433
"1317",1.33592956141904e-07
"1318",0.0750707230754829
"1319",0.000125076512985323
"1320",2.34023911360737e-12
"1321",0.000217654144171187
"1322",0.0137539484578638
"1323",0
"1324",2.06934469559883e-12
"1325",0
"1326",0.00865372666139708
"1327",1.12777668027642e-05
"1328",4.00558688329333e-07
"1329",0
"1330",1.42086342691528e-12
"1331",0.0492684225050461
"1332",0
"1333",0.523040953932531
"1334",0.135697086351652
"1335",9.50241740849123e-09
"1336",2.94320123828129e-13
"1337",0.0112875960182284
"1338",0
"1339",6.34381436270814e-13
"1340",0.407809501205449
"1341",3.45057316053499e-13
"1342",0
"1343",0.0150219354059076
"1344",6.75643944125781e-08
"1345",0
"1346",0.000211186504993632
"1347",0.170465417347106
"1348",0.0371222581095283
"1349",0.316042040393977
"1350",0
"1351",3.090282252316e-09
"1352",5.99520433297585e-15
"1353",0.173703773455333
"1354",0
"1355",0.473121560574365
"1356",0.234680542427526
"1357",7.38402073274802e-06
"1358",0.0253067571191032
"1359",0.0212387778114302
"1360",0
"1361",7.6933570625215e-11
"1362",0.108531162506441
"1363",0.00518859567196628
"1364",0.00454666084395006
"1365",3.06379417169822e-07
"1366",0
"1367",3.38385391485119e-07
"1368",4.71754444397732e-08
"1369",0.702107965331419
"1370",0.0295232685045757
"1371",6.66133814775094e-16
"1372",1.01046948586259e-11
"1373",3.22872454150414e-06
"1374",0.541174295981436
"1375",3.06421554796543e-14
"1376",0.806396837298375
"1377",0.544928602942122
"1378",0.551728804204415
"1379",0
"1380",9.12447895018431e-11
"1381",6.07961079890362e-06
"1382",0
"1383",0.054718176477152
"1384",0.0237226497023242
"1385",0.363493063540993
"1386",0.33837202323667
"1387",0
"1388",0
"1389",1.64525477441835e-06
"1390",0.00398231101583901
"1391",0.00472658620419053
"1392",4.87684926738785e-05
"1393",0.0514171976674846
"1394",0.312600006099237
"1395",1.54883494918323e-09
"1396",0.991676999758965
"1397",0.512201404858122
"1398",0.510976522429722
"1399",1.41882074284894e-05
"1400",0.183346108399309
"1401",0.0558543241863519
"1402",0.602992046068259
"1403",0.00599968192089029
"1404",0.00122402810935018
"1405",0.0732462525732759
"1406",0.329715029870669
"1407",0.0730389560621463
"1408",0.012920128658006
"1409",0.00419066224046438
"1410",0.0045369310388248
"1411",0
"1412",2.09587869282046e-09
"1413",0.0500364098531502
"1414",0
"1415",0.863454466236259
"1416",0.0464612428526406
"1417",0.0258645920843696
"1418",0.642965414874075
"1419",0.154043237637384
"1420",0.108617276861255
"1421",3.04694057873256e-07
"1422",0
"1423",0.106799301875348
"1424",4.75757544471378e-10
"1425",0.0374792551714468
"1426",0.531672742511016
"1427",0.513354798311926
"1428",0.322279269254789
"1429",0.464599811478843
"1430",0.05199701546391
"1431",0.625983270239146
"1432",0.742573808885723
"1433",0.884142332298914
"1434",0.196107044686032
"1435",2.27161622845529e-10
"1436",0.0359782240061848
"1437",0
"1438",0.000215245347492288
"1439",0.25384712992699
"1440",0.582711494609912
"1441",0.173089112790222
"1442",0.0232537898911515
"1443",0.0134966454127775
"1444",0.250358614779213
"1445",0
"1446",0.701699999991567
"1447",0.396766812140801
"1448",0.423605998481741
"1449",0.222543919709486
"1450",0.812280120134993
"1451",8.72437153631722e-08
"1452",0.00202872871016713
"1453",0.0833269553656909
"1454",8.73054003922569e-05
"1455",0.293839758152622
"1456",0
"1457",0
"1458",0.452797894662571
"1459",0.266832311719482
"1460",2.95981523468214e-06
"1461",0.15544073155497
"1462",0.0634508306342866
"1463",5.09295605688465e-10
"1464",0.0180026087914289
"1465",0.719585580758505
"1466",0.104337207684075
"1467",0.345146102412813
"1468",0.00590453847301864
"1469",0.136581230303588
"1470",0
"1471",3.0584725307925e-07
"1472",0.0356782956442738
"1473",0
"1474",4.32986979603811e-15
"1475",3.67483821150927e-14
"1476",0
"1477",0
"1478",1.20348175869367e-13
"1479",0
"1480",0.08635065431394
"1481",0.00176760743111448
"1482",0.153603008943974
"1483",0.122785112188828
"1484",0.55740980294844
"1485",3.8583506178913e-07
"1486",0.189193306919811
"1487",0.209321965566044
"1488",0.206891738529184
"1489",0.00516086019137518
"1490",0.285131181103443
"1491",3.57750495894038e-10
"1492",0.00523986302619006
"1493",3.94693210337138e-08
"1494",0.777746087093133
"1495",3.00480433459427e-05
"1496",3.84408409292991e-06
"1497",0.0742906096013959
"1498",0.0657069353681007
"1499",0
"1500",1.54488757342364e-08
"1501",0
"1502",0
"1503",0
"1504",0
"1505",0.502033097992271
"1506",0
"1507",3.78586051397178e-14
"1508",0.34097315863081
"1509",0.000884569364529741
"1510",0
"1511",0
"1512",1.89848137210902e-14
"1513",3.91944254829468e-11
"1514",0
"1515",0
"1516",0.436655293531234
"1517",0
"1518",0
"1519",4.06341627012807e-14
"1520",0.0320453981972241
"1521",3.35541795459804e-08
"1522",0.00677781794195276
"1523",0
"1524",2.22044604925031e-16
"1525",7.18393386112126e-07
"1526",0.0162393056605494
"1527",0
"1528",0
"1529",0.11871343265299
"1530",0.0276002506197256
"1531",0
"1532",0.0779245758899705
"1533",0
"1534",0.119690276786767
"1535",0.123507949646557
"1536",7.39497352242324e-12
"1537",0.00543047470947
"1538",0.584178756185925
"1539",0.100018306891417
"1540",0.593451259687671
"1541",0.871696328419143
"1542",0
"1543",0.499797949202509
"1544",0.238678385197972
"1545",0.598383638284551
"1546",0.63445790697486
"1547",0.0705195202029422
"1548",0.432205209145245
"1549",0.442100164866831
"1550",0.0124800705912848
"1551",0.993722213742335
"1552",0.408029354013992
"1553",0
"1554",0.596277253256252
"1555",0.562529172718588
"1556",0
"1557",0.835595456870501
"1558",0.795597354360836
"1559",0.467031777361674
"1560",0
"1561",0
"1562",0.9999999999996
"1563",0.739288317268085
"1564",0.205165528794394
"1565",0.0630877234600027
"1566",0.833756973303623
"1567",0.368729965817544
"1568",0.666000876305047
"1569",0
"1570",0.907375163216188
"1571",3.76365605347928e-14
"1572",0.104244415884746
"1573",0.00147706118526347
"1574",0.0208212116409022
"1575",1.35690458868964e-10
"1576",0.109653387885417
"1577",0.718231943385983
"1578",0.00524300412838385
"1579",0.000111256075291499
"1580",0.0996121623106059
"1581",0.0478312298395881
"1582",0
"1583",0.0132696583050896
"1584",0.933154701229936
"1585",0.703619525467658
"1586",6.20047346799879e-11
"1587",0.343632768822066
"1588",0.162492987778609
"1589",0.0528437975674506
"1590",0.00294871114926887
"1591",7.46204436075093e-06
"1592",0.287368458160628
"1593",0.410802951124518
"1594",2.59237076249974e-13
"1595",0.00101320756316436
"1596",0.00555398814594732
"1597",0.341047418672613
"1598",0.32361155242924
"1599",0.00707525155040511
"1600",0.459301267052054
"1601",0.0180226779813879
"1602",0.289708575330453
"1603",0
"1604",0
"1605",0.00862930529722861
"1606",0.33369748709754
"1607",2.63371457911443e-05
"1608",0.00324795350601792
"1609",8.93840557125714e-13
"1610",0.000186842139081378
"1611",2.09134959350266e-08
"1612",0.00157032810319691
"1613",0.010448950491893
"1614",9.06656438082187e-06
"1615",3.72801789438881e-12
"1616",0.0413880600040957
"1617",0.0114846369273183
"1618",5.95579141560165e-11
"1619",0.000422108832276891
"1620",4.97942527544204e-07
"1621",0.0103329936337527
"1622",9.21359655237097e-11
"1623",6.68677443036447e-05
"1624",2.80298895205533e-10
"1625",0
"1626",6.38192354185385e-07
"1627",0
"1628",4.44089209850063e-16
"1629",1.59421809087235e-10
"1630",6.43721742576986e-11
"1631",0
"1632",5.38791233850588e-13
"1633",0
"1634",2.74336109384876e-13
"1635",0
"1636",0
"1637",0.140492330454536
"1638",0
"1639",0
"1640",0
"1641",2.96751440087561e-08
"1642",0
"1643",0
"1644",1.67299507580765e-12
"1645",3.72601505205239e-10
"1646",9.31880128618445e-11
"1647",7.7715611723761e-16
"1648",0
"1649",4.9960036108132e-15
"1650",0
"1651",5.72208946891806e-13
"1652",2.1094237467878e-15
"1653",0
"1654",9.76112761952308e-07
"1655",4.67365219192217e-07
"1656",0.114838221781992
"1657",0.0100998922941389
"1658",0.499926663630513
"1659",0.115231967437306
"1660",0.00549251453664024
"1661",9.90870938966104e-07
"1662",0.641446929390521
"1663",0.031681152498744
"1664",0.0037161307904513
"1665",0
"1666",0.00092836355934145
"1667",0.00842353118921124
"1668",0.292507728375318
"1669",0.790398784163732
"1670",0.636666548734272
"1671",0.00790398930812908
"1672",0
"1673",0
"1674",1.68115521503864e-11
"1675",0.324752247387891
"1676",0.000524527040507872
"1677",0.855203940579083
"1678",0
"1679",2.22044604925031e-16
"1680",0.000290175429792483
"1681",0.000906266729812311
"1682",1.33226762955019e-15
"1683",4.06258001783844e-06
"1684",5.83835180958392e-05
"1685",0.000449654917942688
"1686",3.36419780921915e-12
"1687",0
"1688",0
"1689",0.311646050081667
"1690",0.00358724948469691
"1691",0.120873946398767
"1692",0
"1693",8.79405606599715e-05
"1694",0.00556907117588545
"1695",0.0457955429351525
"1696",0.0472999362563836
"1697",0
"1698",0.00213752449254168
"1699",0.536191570665883
"1700",0
"1701",0
"1702",0.000137684392384152
"1703",0
"1704",0
"1705",0.00182788754609842
"1706",0
"1707",0
"1708",0.476815702674679
"1709",3.75699471533153e-13
"1710",0
"1711",0
"1712",4.44089209850063e-16
"1713",0
"1714",0
"1715",4.88498130835069e-15
"1716",0.00277065442520352
"1717",0.000349803099791379
"1718",0.000381232896783601
"1719",0.355340083564604
"1720",0.020357736002493
"1721",0.000801646368772779
"1722",0.24427243670678
"1723",0.0419618294410888
"1724",9.94525785502631e-07
"1725",4.68853665182012e-05
"1726",0.00189941711906882
"1727",0.000112296672483247
"1728",0.0578757189697309
"1729",0.000475475617181753
"1730",0.0266739112081226
"1731",0.00286894093115186
"1732",0.0830536284375938
"1733",0.00970677977344703
"1734",0.00860704289645142
"1735",2.41756232699508e-07
"1736",0
"1737",0.0645324186394182
"1738",1.58983937126322e-13
"1739",0.000888360035369073
"1740",3.81674469807081e-10
"1741",0.474691478909396
"1742",0
"1743",7.34618710307444e-09
"1744",0.018293487578861
"1745",0
"1746",0.0318279096323835
"1747",0.260863902506862
"1748",8.88178419700125e-16
"1749",0
"1750",0.101113551414822
"1751",0.000621440241452942
"1752",1.26784371760058e-05
"1753",0.00167323599548042
"1754",0.0158277689070825
"1755",1.15637841907601e-05
"1756",0
"1757",0.0425143241037244
"1758",0.268448806726181
"1759",1.83269469408165e-05
"1760",0.0630370241557936
"1761",2.34257058195908e-14
"1762",0
"1763",0
"1764",0.120984404489234
"1765",0.000255367301024823
"1766",7.02575674094152e-06
"1767",0
"1768",1.71290479122899e-06
"1769",0.23388978410697
"1770",0.2485101811938
"1771",0.882041728658084
"1772",0
"1773",0.000771762822320277
"1774",1.94797622476983e-10
"1775",0
"1776",0.00167122520379792
"1777",1.90150429957292e-07
"1778",0.115346869921276
"1779",0.00136382311195093
"1780",0.133940362848772
"1781",0
"1782",0.0042655005794956
"1783",0.863260322960354
"1784",0.0868233258292641
"1785",2.63668131357253e-05
"1786",0.356223377326024
"1787",0.0495045877091141
"1788",0.106333682455772
"1789",0.00485275204866331
"1790",1.10368409012018e-06
"1791",0.664709684739142
"1792",1.84559844296217e-07
"1793",1.12483244607553e-07
"1794",0.129002673933677
"1795",0.0335487209704589
"1796",0.353129967297154
"1797",1.22850416622855e-05
"1798",0.0493200103608213
"1799",0.0868652936273505
"1800",0
"1801",6.88530397918719e-07
"1802",0.656092904394608
"1803",0.82449829845271
"1804",0.707698134279766
"1805",0.367613686725826
"1806",0
"1807",2.64761990109719e-10
"1808",0.0151232389828779
"1809",0.117930219414452
"1810",0.337560786625422
"1811",0.000241039697734813
"1812",1.85108295136516e-07
"1813",0.000361535418464953
"1814",0.319030217593376
"1815",0.159969755016427
"1816",0.630684464645179
"1817",0.658055777270893
"1818",3.20095742134541e-08
"1819",0.814497493727881
"1820",0.113931897145993
"1821",0.275195398879688
"1822",0.221203231410974
"1823",0.861002166634566
"1824",0.881385032904033
"1825",8.49946746317443e-09
"1826",0.612086929971527
"1827",3.71390604193556e-05
"1828",1.55529633616425e-09
"1829",0.412283442168687
"1830",0.598951538264971
"1831",0.117554507434292
"1832",5.69949839945849e-06
"1833",0.0380420433544444
"1834",0.774445055249393
"1835",0.37417180543112
"1836",0.277950224776602
"1837",0.949161394922911
"1838",0.646835149326549
"1839",0.613267506666388
"1840",0.927118600072234
"1841",4.37866190106107e-06
"1842",0.0314334222730625
"1843",0.0925720419881093
"1844",0.0586114914462698
"1845",0.694632114795438
"1846",0.110769335470573
"1847",0.0518222713161737
"1848",0.0169064776558614
"1849",0.964346894763793
"1850",0.0034100849974571
"1851",0.407082408467287
"1852",0.505694129213677
"1853",0.588497996183849
"1854",0.546387461595463
"1855",0.218456446707029
"1856",0.261995709599663
"1857",0.266850248029211
"1858",4.24841554158562e-07
"1859",0.00252216846244757
"1860",0.225678912664049
"1861",0
"1862",0.00930980664425018
"1863",0
"1864",0.364080330471699
"1865",0.129493152839379
"1866",0.128656452892608
"1867",0.00262147467822571
"1868",0.0885163259761776
"1869",0.187382292629196
"1870",0.537882857981751
"1871",0.106554175888676
"1872",0.304533680772577
"1873",0.856646359311021
"1874",0.008189740017017
"1875",0.413241695394038
"1876",0.230724450744617
"1877",0.565817429967991
"1878",0.00147415885664726
"1879",0.283313052751701
"1880",0.461615272397183
"1881",0.319801248727277
"1882",0.00524216874675609
"1883",0.398309488917477
"1884",0.36608452789871
"1885",0.538960679675039
"1886",0.999564128180618
"1887",0.954776916941689
"1888",0.190821837955274
"1889",0.220138080252285
"1890",0.288948061340772
"1891",0.0645318407046817
"1892",0.143758942815604
"1893",0.0649908913709568
"1894",0.00727625298004608
"1895",0.0460530189532179
"1896",0.850605613043907
"1897",1.11022302462516e-16
"1898",0.0682616878659745
"1899",0.0226969081879996
"1900",0.0203563114680237
"1901",0.754781687317135
"1902",0.436379981261457
"1903",0.270031440426199
"1904",0.437762454006987
"1905",0.767904791254581
"1906",0.644403921412335
"1907",0.966718085739478
"1908",0.83678407496748
"1909",0.423113550616939
"1910",0.0669114481069591
"1911",0.879017967601592
"1912",0.503794923752766
"1913",0.61290275101062
"1914",0.0297039796493476
"1915",0.783747501810042
"1916",0.811457440211616
"1917",0.00692784560590065
"1918",0.00243461376032517
"1919",0.0461548705924666
"1920",0.967512212843263
"1921",0.0154164217616956
"1922",0.0291170239384591
"1923",0.617050875086453
"1924",0.0542461823835146
"1925",0.521292868391214
"1926",0.896788862762033
"1927",0.112445003999251
"1928",0.0177124610362813
"1929",0.138397849933807
"1930",0.904870304045843
"1931",0.662298938260037
"1932",0.024155724504447
"1933",0.434426292478509
"1934",0.00794026065389764
"1935",0.0087943584802499
"1936",0.54421620669977
"1937",0.000102133929546611
"1938",0.64975988268869
"1939",0.763997887265466
"1940",3.94933238856421e-06
"1941",0.429857461945155
"1942",0.596507944733859
"1943",0.973447851660569
"1944",0.00942324883623868
"1945",0.742308762117909
"1946",0.058925900477819
"1947",0.501983709615182
"1948",0.227021504770138
"1949",0.0412377825609984
"1950",4.57227911447866e-05
"1951",0.588071976651864
"1952",0.157739061013712
"1953",0.0547208884123326
"1954",0.0172494519174712
"1955",2.56309200741267e-06
"1956",0.88211985593882
"1957",0.930790351553833
"1958",0.121158415165305
"1959",0.807755987587464
"1960",0.0884482529490824
"1961",0.963888408997284
"1962",0.0113501166534747
"1963",0.207158696242216
"1964",0.637961143404478
"1965",0.700965590224285
"1966",0.0534851700985473
"1967",0.467574839927252
"1968",0.269755993142907
"1969",0.132130952045449
"1970",0.765582170757419
"1971",0.481262659825029
"1972",0.000421830492456143
"1973",0.00585355789404585
"1974",0.00287522971214405
"1975",0.43135471395313
"1976",0.0507343277783087
"1977",0.945696213615342
"1978",0.22260150118409
"1979",0.973481036053725
"1980",0.739239289118768
"1981",0.0547153404305314
"1982",0
"1983",0.000133247647138846
"1984",0.865184144308964
"1985",0.0538100003745416
"1986",0.241431147947757
"1987",0.476798020763462
"1988",1.33459624587218e-05
"1989",0.639504718302166
"1990",0.0814551694980286
"1991",0.0965765644684787
"1992",0.0797326806108636
"1993",0.660250125540212
"1994",0.522370162478356
"1995",0.747909743117949
"1996",0.270372363634494
"1997",0.00591964594521366
"1998",0.490765877191637
"1999",0.492306755261808
"2000",0.49602909746694
"2001",0.76230955667194
"2002",0.181513942153075
"2003",0.0368632814257359
"2004",0.768909726205215
"2005",0.00835716967295086
"2006",0.0244278775855826
"2007",0.161381073978983
"2008",0.00897294474190624
"2009",0.940023479517432
"2010",0.423322181914377
"2011",0.00152420558385591
"2012",2.34111618979682e-11
"2013",0.0195010159986005
"2014",0.201032958228617
"2015",0.172160351590022
"2016",0.253399320105716
"2017",0.118126980434622
"2018",0.541603589803305
"2019",0
"2020",0.273073176521536
"2021",0.0971911520098394
"2022",0.000610149778260793
"2023",0.0322007646570582
"2024",0.322432574944354
"2025",0.0916623816532283
"2026",0.83840695069077
"2027",0.577937763157207
"2028",0
"2029",0.000380022176574846
"2030",0.0714515661747965
"2031",0.0346518808571649
"2032",3.33607586000539e-11
"2033",0.814007336801184
"2034",0.817700085070637
"2035",0.869062802810242
"2036",0.383923054279262
"2037",0.03372413322426
"2038",0.0321940244721688
"2039",0.622989860789812
"2040",0.865105714579173
"2041",0.490311476924019
"2042",0.0504038996213249
"2043",0.0376165420615093
"2044",0.0809227013315854
"2045",0.819120241022907
"2046",0.955161952546804
"2047",0.0463960464963681
"2048",0.0683376184102316
"2049",0.116277044314767
"2050",0.00789576552740556
"2051",0.187064034250898
"2052",0.960259596230804
"2053",0.750395483425242
"2054",0.132195153939993
"2055",0.197149064084898
"2056",1.12469608941623e-05
"2057",0.356955330074665
"2058",0.397227389238904
"2059",0.00866044256694654
"2060",0.693731087414308
"2061",0.165009065207571
"2062",0.864838980612492
"2063",0.253361904939756
"2064",0.00942159329505754
"2065",0.000103777451766041
"2066",0.100670610703884
"2067",0.900614073280486
"2068",0.661782080643942
"2069",0.657172825987429
"2070",0.691484023360685
"2071",0.0214054072674393
"2072",0.338961524891775
"2073",0.239900248760405
"2074",0.193645181035015
"2075",0.201336098100872
"2076",0.187045952902419
"2077",0.792964029803579
"2078",0.0481549470838806
"2079",0.16277381601378
"2080",0.315967265180894
"2081",0.157146645127871
"2082",0.152856066811731
"2083",0.199956514142643
"2084",0.537987066183569
"2085",0.837931505710845
"2086",0.263269981389592
"2087",2.01851001924158e-06
"2088",0.194135691418723
"2089",0.38207776616623
"2090",0.795811346500304
"2091",0.682808141141748
"2092",0.0926861732912383
"2093",0.451516000651986
"2094",0.942180610688072
"2095",0.77413444911706
"2096",0.0371659686341897
"2097",0.524296243106539
"2098",0.667243101987722
"2099",0.767831538449825
"2100",0.792361706744121
"2101",0.603815313531387
"2102",0.0168732790425513
"2103",0.258127384663173
"2104",0.552641650052778
"2105",0.283035368437588
"2106",0.123903813873763
"2107",0.138529136465412
"2108",0.876411903075729
"2109",0.694520566543936
"2110",0.145960057359525
"2111",0.456752542830996
"2112",0.0157572685548866
"2113",0.360869723349514
"2114",0.511746512161003
"2115",0.870941684206942
"2116",0.346453794435763
"2117",0.000616912675932446
"2118",0
"2119",9.99200722162641e-16
"2120",6.03363581319627e-10
"2121",4.62252358612858e-09
"2122",0.0114482385331588
"2123",9.45870455829612e-05
"2124",0.224199665871042
"2125",0.00406088701788998
"2126",0.0428482838138095
"2127",0.49635256377632
"2128",0
"2129",0.000751704862895219
"2130",5.77315972805081e-15
"2131",0.00538144199253721
"2132",0.936537696848498
"2133",0
"2134",2.79126379787442e-07
"2135",0
"2136",0.0162744260305168
"2137",0
"2138",0.348467817330219
"2139",0.762325113042565
"2140",0.0059280028367158
"2141",0.536948214660331
"2142",0.728415615984524
"2143",0.0196725356797702
"2144",0.153664226498202
"2145",0.00128193121464015
"2146",0.00675630928038951
"2147",0
"2148",0.351953946285312
"2149",3.21964677141295e-14
"2150",0.0830948608705165
"2151",0
"2152",6.42197447442427e-08
"2153",1.53361183419243e-07
"2154",0.0113396764231195
"2155",0.0438919942276734
"2156",0.192211133989943
"2157",3.86357612569554e-14
"2158",0.320845678135943
"2159",0.00179354102931306
"2160",0.163650731597227
"2161",0.0681883003986024
"2162",0.000379769847726363
"2163",1.62045477036799e-09
"2164",0.302230554031281
"2165",0.119773790806555
"2166",0
"2167",1.40014444482972e-08
"2168",0.0379629283037952
"2169",0.000279854348605113
"2170",0.00534873296717631
"2171",2.57501835635443e-05
"2172",0
"2173",0.477257654990079
"2174",0.00705074441336984
"2175",0.196082028169941
"2176",0.425210194616701
"2177",0.00623306719409056
"2178",0.57841683526614
"2179",0.572319821435283
"2180",0.00236388510736207
"2181",0
"2182",0.0752402569367383
"2183",2.61268784385038e-12
"2184",0
"2185",0.0829984692497966
"2186",0.169440347355065
"2187",0.294912751529334
"2188",0.864281684878151
"2189",0.176289725023601
"2190",0.512812595176603
"2191",0.224227250428784
"2192",0
"2193",0.207893388546325
"2194",0.836737450329932
"2195",0.670789111523721
"2196",0.936964654798832
"2197",0.289923098043621
"2198",0.726293182684652
"2199",0.0423480054341743
"2200",0.639375320862148
"2201",7.40510046739473e-05
"2202",0.254744865234634
"2203",3.88353793567831e-11
"2204",0.121800325476028
"2205",0.00157832188374185
"2206",0.832728821632604
"2207",0.022383098542288
"2208",0.547354194675504
"2209",0.963267874276877
"2210",0.234146454884772
"2211",0
"2212",0.308031175948371
"2213",0
"2214",3.14402948120573e-11
"2215",0.00351678574263548
"2216",0.205352231402245
"2217",0.00628983216556944
"2218",0.237540197596399
"2219",0.0459477242605107
"2220",0.913268034221875
"2221",0.142551813491583
"2222",0.984996044493015
"2223",0
"2224",0.588529103086149
"2225",0.0539349712450194
"2226",0.970901190707721
"2227",0.41701522266055
"2228",0.072291370100243
"2229",0.895681958722912
"2230",0.337168271719695
"2231",0.00200893796253243
"2232",0.0293348166031473
"2233",0.314507371343555
"2234",0.0429119543956191
"2235",0.0996427439653819
"2236",0.0528120778194801
"2237",0.101438143785786
"2238",0.289108914620433
"2239",0.37943705617995
"2240",0.0186779418326983
"2241",0.0135962858464599
"2242",0.0520621638536862
"2243",0.00137093900386787
"2244",0
"2245",0.945286958955337
"2246",0
"2247",0
"2248",0.0282083380659472
"2249",0.875633870011824
"2250",0.489946143833677
"2251",0.298541144999948
"2252",0.733464249496285
"2253",0.554287181510777
"2254",0.225307242156387
"2255",0.739548699580564
"2256",0.202097194245216
"2257",2.60528858218034e-05
"2258",0.256737116997794
"2259",0.189343012216681
"2260",0
"2261",0.116813035801013
"2262",0.00605879317924363
"2263",0.216112314434171
"2264",0.40223112977412
"2265",0.32040563292611
"2266",0.727405083834305
"2267",0.0578842783359819
"2268",0
"2269",7.21422921401427e-13
"2270",0.520721295634218
"2271",0.0870480431616573
"2272",0.888053426952107
"2273",0.230430162231183
"2274",0.00484848049380326
"2275",0.289384075854855
"2276",0.113270920106558
"2277",0.564890825837614
"2278",0.0227051269952148
"2279",0.00026146144714434
"2280",0.208901174283153
"2281",0
"2282",0
"2283",3.64199631175399e-06
"2284",0.000355413184262909
"2285",0.298274549566292
"2286",0
"2287",0.836859068050324
"2288",0.284582486142266
"2289",3.70254927654079e-05
"2290",0.882265746974308
"2291",0.0194451292485086
"2292",0.00157739008346203
"2293",0
"2294",0
"2295",0
"2296",0.0697728169377847
"2297",0.661840116131857
"2298",4.60155795364292e-05
"2299",0
"2300",0
"2301",9.69463886391075e-07
"2302",0
"2303",0.000487361406952047
"2304",0.000439450870041602
"2305",0
"2306",0
"2307",0.038450137758396
"2308",0.775648939700435
"2309",0.0324091563827905
"2310",0
"2311",2.97029068008214e-12
"2312",0
"2313",0
"2314",0
"2315",0.0599405047548719
"2316",0
"2317",0.000471287779041485
"2318",0
"2319",0.0020041093419183
"2320",0
"2321",0.242405948142047
"2322",0
"2323",0.00123319176834735
"2324",6.96109836439973e-14
"2325",0.00190647606328476
"2326",0.00746454482974024
"2327",1.14117273963821e-07
"2328",0
"2329",0.549862874871543
"2330",4.67747740540148e-09
"2331",0.128050490525059
"2332",0.243780846495819
"2333",0.00489470296040584
"2334",5.7537763886728e-08
"2335",0.00326619639207415
"2336",6.14064354920174e-12
"2337",0.00903625041488942
"2338",0.0025020253238216
"2339",0.114690076786797
"2340",0.00760681343459846
"2341",0.181480602957431
"2342",0.0172420378575143
"2343",0
"2344",4.05870714814682e-09
"2345",0.391325809377887
"2346",9.67004254448511e-14
"2347",1.92601012977134e-05
"2348",9.81647840792021e-09
"2349",1.11022302462516e-16
"2350",0
"2351",0.317476168676493
"2352",0
"2353",0.000310862150110669
"2354",7.7715611723761e-16
"2355",3.85029650906699e-06
"2356",0.120479048911901
"2357",1.24105415943987e-08
"2358",0.0134776806130467
"2359",0.988890550342483
"2360",0.128969717749938
"2361",0.000327434020417794
"2362",0.133571784271822
"2363",0.00834551684437534
"2364",0.000101529242748866
"2365",0.000911046857948739
"2366",0.0500410365962869
"2367",0.0112599768096381
"2368",0.101998525990219
"2369",0.175148982490224
"2370",1.31983202145136e-10
"2371",0.0477352791576399
"2372",0.371012261353143
"2373",0.325836650204473
"2374",0.577419684802831
"2375",0.0859164041212295
"2376",0.0274725462369748
"2377",0.00600472178538336
"2378",0.0359802954293469
"2379",0.817013361273855
"2380",0.454492313729104
"2381",0.000347584492802144
"2382",0.2808536000799
"2383",0.000279293376588829
"2384",0
"2385",4.88285385524811e-06
"2386",0.887551403220762
"2387",0.497318682818858
"2388",0.000773865244047545
"2389",0.0140783036548466
"2390",0.43829488983356
"2391",0
"2392",0.066052641544714
"2393",1.99244142461419e-05
"2394",6.32670101159416e-05
"2395",0.000426210591774945
"2396",7.8136453254718e-05
"2397",0.670817231724175
"2398",0.224196563754261
"2399",0.778905755575745
"2400",0.0971502498814737
"2401",0.310592824952504
"2402",0.405693428652081
"2403",0.639593539133896
"2404",2.33584263042985e-11
"2405",0.354930594204437
"2406",0.000191153170537639
"2407",7.80750940320152e-05
"2408",0.933361443433113
"2409",7.00037915639662e-05
"2410",0.243213803365391
"2411",0.753718873514251
"2412",0.08819877206302
"2413",0.82215420964745
"2414",0.207325280954234
"2415",1.32133859409578e-10
"2416",0.0167924288625985
"2417",0.088842847299474
"2418",0.871360949093794
"2419",0.79539340983524
"2420",3.18286237921406e-07
"2421",0.0210606588666121
"2422",3.45250619545601e-05
"2423",4.13818022489965e-05
"2424",0.145679728893147
"2425",0.0136095399962685
"2426",0.503735728445626
"2427",0.0188511407968246
"2428",0.0124104970127492
"2429",0.00678663365255749
"2430",0.264353640802858
"2431",0.4147299643799
"2432",0.282241003677202
"2433",1.22124532708767e-15
"2434",0
"2435",6.16735433298654e-05
"2436",3.25855676086562e-06
"2437",4.38141216774213e-05
"2438",0.00443522566242782
"2439",0.00320467805136637
"2440",1.12369107293508e-05
"2441",0.000484355104390932
"2442",0.138071502618673
"2443",0.000512679510927039
"2444",4.10366214796953e-05
"2445",0
"2446",2.52143861345644e-11
"2447",0.36866246385507
"2448",0.0429280598313749
"2449",0.608892483706678
"2450",0
"2451",0.962636513882129
"2452",0.555989875197182
"2453",0.00190794913101366
"2454",3.76012314010632e-05
"2455",0.492144899063545
"2456",0.362515983115882
"2457",0.967819964283084
"2458",7.5171338043134e-09
"2459",0
"2460",0.361796643367823
"2461",0.00818385818330625
"2462",0.609478765745448
"2463",0
"2464",0
"2465",0.00359937341229766
"2466",0.873888244685718
"2467",0.811684864126133
"2468",0.988117617593721
"2469",0.00541663250441971
"2470",5.36473624739298e-05
"2471",0.355459284008466
"2472",0.764278097868007
"2473",0.0800524309639352
"2474",0.78571468858025
"2475",0.532633813853378
"2476",0.0564257591672698
"2477",0.800062436329929
"2478",0.0024533063177784
"2479",0.41572926010563
"2480",0.0129303470388379
"2481",0.226988854411373
"2482",0.59697485071919
"2483",0.300872088566316
"2484",4.65496641233187e-09
"2485",0.643510063632593
"2486",0.0547082676956478
"2487",0.208028161895374
"2488",0.921612373171149
"2489",0.614846199065884
"2490",0.315295243754796
"2491",0.0558890714456968
"2492",0.353169803301135
"2493",0.0401690520606693
"2494",0.216336509880234
"2495",0.110135966621903
"2496",0
"2497",0.413827263495666
"2498",0.145037961043318
"2499",0.857042634795188
"2500",0.562277302396702
"2501",0.287119639852775
"2502",0.1534528319976
"2503",0.160611276790736
"2504",0.744200989190205
"2505",0.637017567792732
"2506",0.336112038451657
"2507",0.126752519053833
"2508",0.303949463960172
"2509",0
"2510",0.399104351589094
"2511",0.272788266346591
"2512",0.486885095774366
"2513",0.0157090674281014
"2514",0.266864121586921
"2515",0.982579218163411
"2516",0
"2517",0.0110347759267362
"2518",0.301883578118213
"2519",0.0243074026758264
"2520",0.589643952690953
"2521",0.958403753508832
"2522",0
"2523",0.0966824764153243
"2524",0.00150589520361444
"2525",0
"2526",0.00992081011674995
"2527",0.253943191063625
"2528",0.347185544645164
"2529",0.565932239455663
"2530",0.335843231659149
"2531",0.334104091537271
"2532",0.11754668701041
"2533",0.536429115306042
"2534",1.31006316905768e-13
"2535",0.00420134161493668
"2536",0
"2537",7.42076628922339e-05
"2538",0.0283354852799071
"2539",0.171069063301956
"2540",0
"2541",0.258011133953309
"2542",0.0720664728128896
"2543",0.0678414024262665
"2544",0.0300897684537239
"2545",0.127844382517414
"2546",0.00409186794032435
"2547",0.0887586863865812
"2548",0.479679423336909
"2549",0.792921578990111
"2550",0.12047654111522
"2551",0.340636701658246
"2552",0.102731659320828
"2553",0.0716522464146535
"2554",0.398004080405881
"2555",0.0874750416341138
"2556",0.17619718379173
"2557",0.573563499636508
"2558",0.000517395344771354
"2559",0.316741842270328
"2560",0.0406104591631715
"2561",0.0344543106839619
"2562",0.00263918771400806
"2563",1.2633472349366e-06
"2564",0.127778594944784
"2565",0.958304433774851
"2566",0.0664026619524342
"2567",0.0981128210181416
"2568",0.182225092453314
"2569",0.239934150630378
"2570",0.325230176407786
"2571",0.192908477872317
"2572",0.0293488435429046
"2573",0.458489616934659
"2574",0.235682603372453
"2575",0.664269673135459
"2576",0.0158625458899061
"2577",0.0322534520648332
"2578",0.679150064645045
"2579",0.00642104690744827
"2580",8.52011317054036e-09
"2581",0.00115148394204811
"2582",0.892066143331457
"2583",0.981165810095041
"2584",0.622980182505052
"2585",0.616770124959424
"2586",0.0358277594295384
"2587",0.0513714445858173
"2588",0.823738148890922
"2589",0.00867471210503601
"2590",0.0145316837352416
"2591",2.33647545755389e-11
"2592",0.0377365779471628
"2593",0.0287768943165431
"2594",0.544533313575951
"2595",0.508329212255974
"2596",0.00328329233762248
"2597",0.0850380059462333
"2598",0.48465452694239
"2599",0.00272284096539666
"2600",0.906138294868155
"2601",0
"2602",7.61383999181575e-06
"2603",0.276491578439896
"2604",0.00554630990143745
"2605",0.531268987995301
"2606",0.344359558238512
"2607",0.0691177887951873
"2608",0.249863033197619
"2609",0.0220942688020329
"2610",0.434263968261345
"2611",0
"2612",0.808864182264067
"2613",0
"2614",3.61336516263577e-11
"2615",0.0257363249927614
"2616",0.0622878696694333
"2617",0.688134757441594
"2618",0.0727782596356659
"2619",0.79589032000384
"2620",0.0211605727222408
"2621",0.31387984361922
"2622",0.854159309594429
"2623",0
"2624",0
"2625",0.0251880404948999
"2626",0.395315095959376
"2627",0.121332986336476
"2628",0.17169620994298
"2629",0.286878200717395
"2630",0.0749914841389066
"2631",4.79567926481295e-08
"2632",0.048553319348194
"2633",0
"2634",0.000191563469529643
"2635",0.00486610207091842
"2636",0
"2637",0.10317892291248
"2638",0.561992740302499
"2639",0.0005532137356411
"2640",0.00329421134416341
"2641",0.162313004417409
"2642",0.0012713097175302
"2643",0.147090959150123
"2644",8.88178419700125e-16
"2645",0.000420249005141815
"2646",0.733202404285375
"2647",4.44033954049017e-05
"2648",0.547534162197362
"2649",0.000118727561449816
"2650",0
"2651",0.190864962723786
"2652",0.000194046309317408
"2653",0.0135108722375774
"2654",1.3190060377255e-08
"2655",0.0905591077536002
"2656",0
"2657",5.06386150234128e-06
"2658",0.00877845485251794
"2659",5.81978909508507e-13
"2660",0
"2661",0.0344855248399778
"2662",0.0611581169388203
"2663",1.0991207943789e-14
"2664",0.320097938642376
"2665",1.19343244628922e-05
"2666",2.31231956557831e-05
"2667",6.62803145701218e-14
"2668",0.770690368374971
"2669",5.14012400421038e-07
"2670",0.00186157094220551
"2671",0.0014270574125973
"2672",1.01901886928601e-08
"2673",0.000127777026717069
"2674",0.703439608256026
"2675",0
"2676",0
"2677",0.743007073877541
"2678",0.385970110222538
"2679",0.610251138169591
"2680",0.212571916324164
"2681",0.435867729869024
"2682",0.0189382795914437
"2683",0.0220985973088581
"2684",0.764825742036131
"2685",0.00246334647832547
"2686",0.0183638670406735
"2687",0.600566679096968
"2688",0.68959561079574
"2689",0.0354495025519179
"2690",9.57377834831519e-06
"2691",0.244729848548268
"2692",0.0369137831286031
"2693",0.000154801194547916
"2694",0.00820054062177611
"2695",0.00897174637464337
"2696",0.0864768314023407
"2697",2.90832408815778e-05
"2698",2.12992749313301e-05
"2699",1.12693553377952e-08
"2700",1.97296001758218e-09
"2701",0.00256806323894021
"2702",0.541838101739133
"2703",0.799568309985918
"2704",0.893077023164286
"2705",0
"2706",0.0267763905303506
"2707",0.165090613169727
"2708",0.0687969234348398
"2709",0.70103815202945
"2710",0.806823713213685
"2711",0.717788629272102
"2712",0.41359072858547
"2713",4.50406254184355e-05
"2714",0.694878224899982
"2715",0.00228346233493748
"2716",0.105919191717176
"2717",0.630062542626736
"2718",0.547374187064583
"2719",0.675076858243636
"2720",0.0305373269362977
"2721",0.38328500006055
"2722",0.306249381128659
"2723",0.0398823087228715
"2724",0.861991165839843
"2725",0.00149861994278722
"2726",0.00344374699393324
"2727",0.00170296116292845
"2728",0.0315395595477441
"2729",0.0220805455228643
"2730",0.360750527112253
"2731",0.0190590416012399
"2732",0.795267757331527
"2733",0.179403233660514
"2734",0.115041934914263
"2735",0.590237074857192
"2736",0.810623512594413
"2737",0
"2738",3.81796385617861e-08
"2739",0.0190876407915286
"2740",0.398060172877388
"2741",0.198155586632969
"2742",3.51443126045403e-07
"2743",0.308923321011813
"2744",0.625253075213301
"2745",0.228228710853081
"2746",0.13124146236027
"2747",0.0443563711557702
"2748",0.0247338393786778
"2749",0.0366506212343178
"2750",6.55031584528842e-15
"2751",0.000859844443861002
"2752",0.221033106994979
"2753",0.445601522378916
"2754",0.0368608400129118
"2755",5.56453928095557e-05
"2756",0.0407757906485959
"2757",0.0061287937095168
"2758",0.255873663153118
"2759",0.906766793606385
"2760",0.289131434227014
"2761",0.234481120926273
"2762",0.140978487313386
"2763",0.440988997203939
"2764",0.027983513199247
"2765",0.124888230634782
"2766",0.307222593988678
"2767",0.503211073402178
"2768",0.000173823064998357
"2769",0.031736533689711
"2770",0.740119554035129
"2771",0.642814472207155
"2772",0.225376339646845
"2773",4.0740392718952e-05
"2774",0.146087954543097
"2775",0.691234357732852
"2776",0.866786483626006
"2777",0.0470012889477899
"2778",0.00164790395050662
"2779",0.630204111683434
"2780",0.0487474091681322
"2781",0.134456565946367
"2782",0.00122883649340988
"2783",0.0133809053678737
"2784",0.000848761717701874
"2785",0.123078757685514
"2786",0.0134447195861011
"2787",0.0736640909660443
"2788",0.524943251131023
"2789",0.00265056620500448
"2790",0.866684666274212
"2791",0.279159519779483
"2792",0.162657867458828
"2793",0.808172400643814
"2794",0.535195655271221
"2795",0.566927814426949
"2796",8.90352196414312e-08
"2797",0.00266827284395776
"2798",0.603282888504351
"2799",1.22568621918617e-13
"2800",0.375897837355497
"2801",0.412219636866209
"2802",0.22368835936555
"2803",0.000204268847719624
"2804",0.585433964705607
"2805",0
"2806",1.11022302462516e-16
"2807",0.418152502841503
"2808",0
"2809",0.0331022227495308
"2810",0.00300809053572126
"2811",0.0338483746074667
"2812",0.113881923448626
"2813",0.788925389807926
"2814",9.94909051343917e-06
"2815",0.314399430598818
"2816",0.00103210670421805
"2817",0.941904298595582
"2818",0.0741739873075783
"2819",0.563025327794157
"2820",0.000323737533923785
"2821",0.0855166605189862
"2822",0.735430492372724
"2823",0.000879975054373205
"2824",1.57918123022682e-12
"2825",0.101870520296131
"2826",0
"2827",0.19277187901708
"2828",3.81544078775775e-07
"2829",4.02441957536581e-09
"2830",6.08931793877332e-11
"2831",0.00640503623679722
"2832",3.46170977105764e-07
"2833",0.0612484907927777
"2834",0.0885095039810094
"2835",0.242965327625779
"2836",0.232139271700416
"2837",0
"2838",0.40517356332012
"2839",0.000519687167334748
"2840",0.0472939075976654
"2841",6.91961181331635e-06
"2842",0.00506776186595059
"2843",0.0188853297375385
"2844",0.192664572322338
"2845",0.463903669551837
"2846",0.394319159701782
"2847",0.279498940375829
"2848",0.22953214718415
"2849",0
"2850",0.352373980642879
"2851",0.20034700477996
"2852",0.145132553805183
"2853",0.126323461404732
"2854",0.893780398607119
"2855",0.00460810929855626
"2856",0.11441648214433
"2857",0.964095811147305
"2858",4.38138414438072e-12
"2859",8.34099786084508e-06
"2860",0.0820271566863073
"2861",0.412607189466116
"2862",0.386971876676185
"2863",0.16572072641534
"2864",0.30110359686121
"2865",0.285139788034217
"2866",0.041123939149476
"2867",0.561428825813698
"2868",5.28234587900966e-05
"2869",0
"2870",0.283977598740936
"2871",0.00418033569086906
"2872",0.221139766371431
"2873",0.460650435656619
"2874",1.40155379464435e-05
"2875",0.0240357110693219
"2876",7.37995471622455e-07
"2877",0.336287338235298
"2878",0.104429864482039
"2879",0.494215691978773
"2880",0.537652392226666
"2881",0.524210975713561
"2882",4.6723997842224e-05
"2883",0.646593991761097
"2884",0
"2885",0.197366166692014
"2886",2.92381674427133e-11
"2887",0.241996408861264
"2888",0.0284945240486365
"2889",0.0160699662914803
"2890",0.647078169872856
"2891",0.592670417812383
"2892",0
"2893",0.0159374331088962
"2894",0.320654985230061
"2895",0.710386610037969
"2896",0.12104331805348
"2897",0.801897465783905
"2898",0.431947894276075
"2899",0.514789685856466
"2900",0.801801459584216
"2901",0.346604659690957
"2902",0.218925722548292
"2903",0.493011835535171
"2904",0.90014930357862
"2905",0.0105619494597629
"2906",0.0157802822333424
"2907",0.0507178372951868
"2908",0.135047105780708
"2909",0.657047528892779
"2910",0.0970934075847287
"2911",5.71022266138144e-08
"2912",0.00151960372066018
"2913",0.235855344033053
"2914",0.62478241777786
"2915",0.41492695570978
"2916",0.0890951508885829
"2917",0.162320004167289
"2918",0.934819251199816
"2919",0.444752794459444
"2920",0.347722328118286
"2921",0.00228082189694678
"2922",0.0836706086805229
"2923",0.451117996670212
"2924",0.00266834403481353
"2925",0.584104732614485
"2926",0.393250157916094
"2927",0.314230806334323
"2928",0.415369697100066
"2929",0.493038740043618
"2930",0.0476225982714304
"2931",0.461983102277851
"2932",0.0277080591371425
"2933",0.0685096776042722
"2934",0.483427386293913
"2935",0.30989193162309
"2936",0.0490563798112179
"2937",0.99697530862342
"2938",0.0794899787894139
"2939",0.678887435240984
"2940",0.00669830956089901
"2941",0.292569525598601
"2942",0.199661352578166
"2943",0.000700218275555331
"2944",0.00636939291917304
"2945",0.000177852563295389
"2946",0.0359741837065034
"2947",0.0930360363002923
"2948",0.737680717739641
"2949",0.0533232532067224
"2950",0.000901483371230305
"2951",0.341531103719433
"2952",0.0400206010691979
"2953",0
"2954",0.00691893805555899
"2955",0.251625480270061
"2956",0.276923438611976
"2957",0.00417427082505473
"2958",0.216959186433909
"2959",0.169038271414849
"2960",0.943245954213794
"2961",0.924813824003379
"2962",0.0825195175038844
"2963",0.202185119849783
"2964",0.275093046774176
"2965",0.796506106714106
"2966",8.92959376609381e-05
"2967",0.0165219812652653
"2968",0.492149066737018
"2969",0.0817259865891694
"2970",0.780017785548283
"2971",0.982097302845195
"2972",0.0920889478524761
"2973",0.275877128476932
"2974",0.173736449579828
"2975",0.272178279303615
"2976",0.182094730328527
"2977",0.0390269100411473
"2978",0.0141334018304583
"2979",0.525712012815791
"2980",0.000784159813622232
"2981",0.0377327145298278
"2982",0.716107956507198
"2983",0.0954323539717314
"2984",0.00960536689499891
"2985",0.0542931465515755
"2986",0.339521277554661
"2987",0.972736137389565
"2988",0.740854106494373
"2989",0.948045763028554
"2990",0.259916432624613
"2991",0.605085433542507
"2992",0
"2993",0
"2994",0.92326659283939
"2995",0.0257136203226417
"2996",0.343971425665546
"2997",0.343655730427779
"2998",0.0431273744823633
"2999",0.550324088905615
"3000",0.0395395624677214
"3001",4.21884749357559e-14
"3002",0.146840451133411
"3003",0.314777722799585
"3004",0.561203035546288
"3005",0.0401421706453196
"3006",0.0028238367561022
"3007",0.000847368571142648
"3008",0.39244757378116
"3009",0.405266181772683
"3010",0.0489861472064671
"3011",0.362885484819955
"3012",0.0130221942655785
"3013",0.000455209894219766
"3014",0.550251406950963
"3015",0.940707913122659
"3016",0.260549523376407
"3017",0.0571330805804566
"3018",0.219390099478014
"3019",0.0762203625665172
"3020",0.117149942472915
"3021",0.591236412869324
"3022",0.839088080844731
"3023",0.602996603443872
"3024",0.953471090985786
"3025",0.000756839200459769
"3026",0.242357530228518
"3027",0.240920713111316
"3028",0.460185803347855
"3029",0.0210868735649871
"3030",0.559088520172331
"3031",0.672161284971564
"3032",0.111064416684446
"3033",0.00923250528363284
"3034",0.00212074082850022
"3035",0.00607190318569584
"3036",0.329024799799174
"3037",0.0123834143052391
"3038",0.0902146344919953
"3039",0.00155429039688482
"3040",0.00127090757892812
"3041",0.669767209622271
"3042",0.118524941440587
"3043",0.562543673541274
"3044",0.0181001816425883
"3045",1.12275966324127e-06
"3046",0.120362116028804
"3047",0.474082129962215
"3048",0.47021075090884
"3049",0.245328487354729
"3050",0.606118647388614
"3051",0.418417590854411
"3052",0.63323508848981
"3053",0.564381581597119
"3054",0.271458152906146
"3055",0.64751578243883
"3056",0.362749607175688
"3057",0.105617348107379
"3058",0.624080034552627
"3059",0.99990500693237
"3060",0.169586178821203
"3061",0.606208315923415
"3062",0.138667134035463
"3063",0.835515486917291
"3064",0.0832808412549525
"3065",0.358891646598703
"3066",0.403739419541901
"3067",0.131716256194189
"3068",1.98533145479018e-09
"3069",0.504807962677813
"3070",0.500820976691628
"3071",0.729158832702338
"3072",0.419451463449092
"3073",0.347676754885913
"3074",0.19687087837569
"3075",0.0126983605256549
"3076",0.845543373337021
"3077",0.295331055930476
"3078",0.00366267476268756
"3079",0.934208054611788
"3080",6.5580874064608e-13
"3081",0
"3082",0.0764825204083177
"3083",0.6793592459165
"3084",0.303781951476668
"3085",0.0449569578268246
"3086",0.254697790295253
"3087",3.41893180433317e-12
"3088",2.78999046088302e-13
"3089",0
"3090",0
"3091",0
"3092",1.96291357668077e-06
"3093",0
"3094",0.302835322206654
"3095",6.76455691461797e-09
"3096",0
"3097",0
"3098",0.000112755727381231
"3099",0.104829434487398
"3100",0.662662201092832
"3101",2.0199404937582e-07
"3102",0
"3103",0
"3104",1.18993703779324e-12
"3105",0
"3106",3.52026130584493e-05
"3107",0.346859494049551
"3108",5.42166200823146e-10
"3109",0.000683235393167725
"3110",0.145111336903825
"3111",0.995483880011342
"3112",0.00127081507687632
"3113",7.86325449197989e-11
"3114",8.76745800648671e-06
"3115",0.103056023941329
"3116",0
"3117",6.66133814775094e-16
"3118",0.00978688705546082
"3119",0
"3120",0.796151303372253
"3121",0.396121847064252
"3122",0.0655789807235777
"3123",0.00160058797808593
"3124",0.0176245763859473
"3125",0.65964737256846
"3126",0.578936923691202
"3127",0.457012585651986
"3128",1.11022302462516e-16
"3129",0.00707461279615773
"3130",1.33897357645907e-08
"3131",0.0993418660259748
"3132",0.859681597045486
"3133",0.00698170593256719
"3134",6.52783093135767e-08
"3135",1.58862189181264e-07
"3136",0.06841052658149
"3137",0.321274489837542
"3138",0.596997833641008
"3139",0.35580571207075
"3140",0.219444724168874
"3141",0.0463657482597444
"3142",0.670512297250192
"3143",0.586074584702362
"3144",0.95459412004047
"3145",0.862174815047147
"3146",0.642130362956523
"3147",0.952366200377705
"3148",0.0503404388993339
"3149",0.192095986127859
"3150",0.21897239523416
"3151",0.900147043223889
"3152",0.290316455316863
"3153",0.113445725600746
"3154",0.627114179776333
"3155",0.925871921128261
"3156",0.740065702470472
"3157",0.528531143523648
"3158",0.964420586384975
"3159",0.55699065083514
"3160",0.366897281259828
"3161",0.446599805624659
"3162",0.799735554632495
"3163",0.575038462904028
"3164",0.644990476945024
"3165",0.00386049759421969
"3166",2.65276689503935e-12
"3167",0.283404419423027
"3168",0.712635422838664
"3169",0.875604159985119
"3170",0.039316758938059
"3171",0.295534702167668
"3172",0.629955903126638
"3173",0.0300588537870661
"3174",0.953580906271881
"3175",0.964650849670342
"3176",0.637449276236902
"3177",0.0385177437737898
"3178",0.538918105541369
"3179",0.910836333267208
"3180",0.736163398538264
"3181",0.161924926951963
"3182",0.85166649111291
"3183",0.360525244587758
"3184",0.363095186075481
"3185",0.0770255027706851
"3186",0
"3187",2.47247777807047e-11
"3188",0.762253408581155
"3189",0.971691319478199
"3190",0.789949658348736
"3191",0.959980391946479
"3192",0.0989772729472135
"3193",0.0956913021873501
"3194",0.275246110376638
"3195",7.89676414147955e-07
"3196",0.00142097167763999
"3197",0.489011262926977
"3198",0.0104603657757519
"3199",0.153177847910841
"3200",5.22125259683204e-06
"3201",0.166111364020807
"3202",0.470200911613466
"3203",0.140571690032797
"3204",7.7239113460692e-07
"3205",0.0824364868371465
"3206",0.000189632267203366
"3207",0.073087557765026
"3208",0.00222193036516538
"3209",0.93083126156331
"3210",0.937133549448943
"3211",0.780195099273373
"3212",0.0477561007603635
"3213",0.786769917545806
"3214",0.848110462484957
"3215",0.0340906616398309
"3216",0.103652553582689
"3217",0.0518075381581282
"3218",0.462405741071726
"3219",0
"3220",0.00325004970838383
"3221",0.138115163727174
"3222",0.000105596365089
"3223",0
"3224",0.635717393562591
"3225",0.0160830413056576
"3226",0
"3227",0.332183389316484
"3228",0.364298380491383
"3229",0.0432089037075746
"3230",0.184791125219804
"3231",0.0169836720497868
"3232",0.53125937784766
"3233",0.776634147816732
"3234",0.518214124382456
"3235",0.990238756566272
"3236",0.0969841155781763
"3237",0.923920084812789
"3238",0.905606917522763
"3239",0.956058735391312
"3240",0.925171108501378
"3241",0.812059308335633
"3242",0.158059237037974
"3243",0.988372070971534
"3244",0.0493809647804161
"3245",0.997708776070958
"3246",0.665578879362408
"3247",0.912558854173829
"3248",0.501938341161039
"3249",0.0156385405907037
"3250",0
"3251",0
"3252",0.668435935845555
"3253",0.458878071400644
"3254",0.237350192965713
"3255",0.997828060261845
"3256",0.304352473907777
"3257",0.992847863404507
"3258",0.0595913396587906
"3259",0.000186387633605345
"3260",0.020583009290662
"3261",4.33712010750043e-09
"3262",0.946873798433074
"3263",0.0694554116518228
"3264",0.306853585254668
"3265",0.542369544259636
"3266",0.0670505136040741
"3267",0.193341501041714
"3268",0.885941000144527
"3269",0.721746217025132
"3270",0.00110834846197083
"3271",0.891683536178617
"3272",0.0181867813969839
"3273",0.0206129409281041
"3274",0.0188996026848069
"3275",0.144928285469159
"3276",0.0344420660831009
"3277",0.194991495000039
"3278",0.1218811912222
"3279",0.150658870588994
"3280",0.530294871875003
"3281",0.00122913463663865
"3282",0.085841861187237
"3283",0.672127914314242
"3284",0.71525555228243
"3285",0.525751530463187
"3286",0.756296797222685
"3287",0.0793163667160346
"3288",0.993549061524243
"3289",0.661564424261404
"3290",0.0609280649513528
"3291",8.70931224483673e-06
"3292",0.190691100942852
"3293",1.26179473503019e-06
"3294",2.81847106933242e-05
"3295",7.08903632055113e-05
"3296",1.11022302462516e-16
"3297",0
"3298",0.181831626087481
"3299",0.591343718839612
"3300",0.765199068757489
"3301",0.136954162752173
"3302",0.215160453249024
"3303",0.00808459300482289
"3304",0.95699654467101
"3305",0.994068176170136
"3306",0
"3307",9.39160038626596e-09
"3308",5.10702591327572e-15
"3309",0
"3310",2.22044604925031e-16
"3311",0
"3312",7.77848563338068e-10
"3313",2.61040078441965e-11
"3314",1.30291779143477e-07
"3315",3.33066907387547e-16
"3316",1.57605425821217e-07
"3317",2.86293211360089e-12
"3318",0
"3319",2.17320939022159e-10
"3320",0.00028738587178867
"3321",1.34690949392668e-05
"3322",4.85080864365273e-11
"3323",0.00175163134497458
"3324",0.354118902169326
"3325",0.802098849939492
"3326",0.0422474726442753
"3327",0.407074768984778
"3328",0.676333994376905
"3329",0.0674642960824127
"3330",0.123739993121912
"3331",0.345077219358959
"3332",0.225578411337552
"3333",0.862887435292018
"3334",1.31004451731087e-09
"3335",6.9801051136853e-06
"3336",0.000826147533971922
"3337",9.45824529807737e-11
"3338",1.20756588839477e-06
"3339",1.08513198426863e-12
"3340",9.36301480791712e-10
"3341",0
"3342",0.000418289296728158
"3343",3.30640520762593e-06
"3344",7.95568740281638e-05
"3345",0.00112665170364679
"3346",6.80889788995387e-11
"3347",0.156097292882142
"3348",0.172954762861561
"3349",0.00615511810536573
"3350",0.0671994788126253
"3351",0.00146421471215008
"3352",4.04125779202014e-05
"3353",0.404799986039907
"3354",9.00075096149644e-05
"3355",0
"3356",0.393220463786245
"3357",0.107505733239791
"3358",0.953189099610531
"3359",0.467283913088664
"3360",0.899705917681014
"3361",0.579051856827783
"3362",0.602318956577186
"3363",0.751426771093495
"3364",0.792342005540803
"3365",0.184341784044605
"3366",0.191935029416188
"3367",0.800264204738347
"3368",0.48523062593901
"3369",0.428356080983984
"3370",0.18900393594492
"3371",0.806036350605291
"3372",0.49465129944794
"3373",0.110511219384477
"3374",0.166834550576406
"3375",0.53179393937606
"3376",0.160832362143662
"3377",0.0849047413996672
"3378",1.71184844077743e-10
"3379",0.531951325998029
"3380",0.0409588909551036
"3381",0.653838004552217
"3382",0.655468460174229
"3383",0.0119441803400906
"3384",0.273925862707206
"3385",2.13879358113012e-07
"3386",0.00394153014337939
"3387",0.422542607992015
"3388",0.337939200632733
"3389",0.100187773076004
"3390",0.960876621605007
"3391",0.9385002390387
"3392",0.110657358770329
"3393",0.733069254262893
"3394",0.178596982322371
"3395",0.00900266222044377
"3396",0.0417396679833485
"3397",0.302825053391787
"3398",0.225354800649022
"3399",0.49831746680007
"3400",0.0210491147193617
"3401",0.212274430833381
"3402",0.00112320382419018
"3403",0.400552712446622
"3404",0.29639322172878
"3405",0.00429852331038727
"3406",0.355446663057775
"3407",6.211579854698e-06
"3408",0.093471167047511
"3409",0.811120679157966
"3410",0.585111813033143
"3411",0.395861827452769
"3412",0.63153751363032
"3413",0.174261040262668
"3414",0.0243868273153873
"3415",0.257603059313577
"3416",0.908259598244784
"3417",0.302578072190022
"3418",0.0829209983851864
"3419",0.237016428754911
"3420",0.389820313783906
"3421",0.38854146481071
"3422",0.0455887547131264
"3423",0.843449219876642
"3424",0.114023641564722
"3425",0.00560315668752565
"3426",0.149429198704587
"3427",0.955473777007536
"3428",0.559772644612305
"3429",0.258587624939219
"3430",0.618300854931087
"3431",0.664528156345271
"3432",0.266033591044105
"3433",0.655392138567027
"3434",0.164062599144964
"3435",0.357607587604421
"3436",0.777011895944791
"3437",0.633947805790746
"3438",0.434965134606881
"3439",0.163210578619519
"3440",0.410646662570915
"3441",0.00266849691833748
"3442",0.600275977957283
"3443",0.000929308506525062
"3444",0.021149427663274
"3445",0.771751119836521
"3446",0.283439579869581
"3447",0.518136889316713
"3448",0.371475305171129
"3449",0.13815473444944
"3450",0.948470558986288
"3451",0.163380849709751
"3452",0.00691000583671686
"3453",0.84023767420837
"3454",0.00195734372916656
"3455",0.00466341950913951
"3456",0.0448616162592694
"3457",1.70490863538042e-07
"3458",0.0683675253665293
"3459",0.00436514586814962
"3460",8.04399380438525e-08
"3461",0.218969232151726
"3462",2.92224333594548e-05
"3463",0.006935888554642
"3464",0.00709239438557629
"3465",4.15135672837685e-07
"3466",7.82263143150885e-13
"3467",0.0682591633126446
"3468",0.345098445673261
"3469",0.411430378995095
"3470",0.0484992619966969
"3471",4.09441369697561e-11
"3472",2.02187155906586e-11
"3473",8.12183317726589e-05
"3474",2.4980018054066e-14
"3475",6.35564930684396e-08
"3476",0.0155397799443862
"3477",0.0312396595346068
"3478",2.25264251696444e-13
"3479",0
"3480",3.32733840480159e-13
"3481",0
"3482",5.9762467363722e-07
"3483",0
"3484",0.0040188512186039
"3485",0
"3486",3.00870439673417e-14
"3487",2.45117521524563e-06
"3488",0
"3489",7.92887977496548e-12
"3490",2.57820308388057e-05
"3491",0.0320209483858978
"3492",8.40105762733856e-13
"3493",1.66533453693773e-15
"3494",0.101144408379204
"3495",3.32618099729842e-09
"3496",0.174569095607159
"3497",0.00477230176173105
"3498",9.81448969480381e-05
"3499",2.1941474193099e-09
"3500",0.0543591304440482
"3501",2.62241257598106e-08
"3502",0
"3503",0.00604672933930128
"3504",0
"3505",0
"3506",0
"3507",0
"3508",0
"3509",0
"3510",2.22044604925031e-16
"3511",0
"3512",3.15919512772211e-11
"3513",0.161896739512065
"3514",0
"3515",0
"3516",3.99680288865056e-15
"3517",5.08482145278322e-14
"3518",0
"3519",9.21360605588006e-08
"3520",1.85792381479644e-10
"3521",0.186988034794905
"3522",0
"3523",8.32990454391336e-10
"3524",0.452819709338436
"3525",0.00359322808961693
"3526",0.889427244228715
"3527",0.00518554260899462
"3528",0.000443355358514252
"3529",0.786111102201437
"3530",0.150673654810634
"3531",6.43181863324571e-09
"3532",3.48798767646485e-12
"3533",0.00519773144611169
"3534",0
"3535",4.10106804681343e-05
"3536",6.39936992286039e-11
"3537",1.27675647831893e-14
"3538",0.0436500701956382
"3539",0.908908003952
"3540",3.72517917623938e-08
"3541",2.70894418008538e-14
"3542",0
"3543",0
"3544",0
"3545",0
"3546",0
"3547",0
"3548",0.738114719752349
"3549",0
"3550",0.127399346158296
"3551",7.7715611723761e-16
"3552",0
"3553",0
"3554",0
"3555",0
"3556",2.13367374879425e-08
"3557",1.9256714001159e-09
"3558",0.571473830425279
"3559",0
"3560",3.99680288865056e-15
"3561",1.59960933387993e-12
"3562",0.000665518952270072
"3563",0
"3564",5.86469730445849e-07
"3565",0
"3566",0
"3567",0
"3568",0
"3569",0.524400842505
"3570",0
"3571",0
"3572",0
"3573",0.0271433574770547
"3574",0
"3575",0.000849247040004775
"3576",0
"3577",0
"3578",0.000134437442940727
"3579",0
"3580",0
"3581",0.133829806101624
"3582",0
"3583",0
"3584",0
"3585",0
"3586",0.116105501505192
"3587",0
"3588",0
"3589",0
"3590",0
"3591",0
"3592",0.100958183827978
"3593",2.1094237467878e-15
"3594",0
"3595",0
"3596",0.0104664095714631
"3597",0.0783336732621237
"3598",1.15463194561016e-14
"3599",0.0643929018832888
"3600",0.00100461480980707
"3601",1.63202784619898e-14
"3602",0.000454735132046635
"3603",7.32803330238951e-07
"3604",0.00157234193765254
"3605",0.161808153028962
"3606",0
"3607",7.14710013394182e-09
"3608",4.37987186185929e-07
"3609",0
"3610",0.000255134762330411
"3611",2.0133522626864e-09
"3612",1.16359144541889e-11
"3613",0.0596181828173923
"3614",1.7001829277774e-08
"3615",0.000235417813477912
"3616",0
"3617",4.98590619051331e-05
"3618",0
"3619",0
"3620",0
"3621",0.596152341299386
"3622",4.1569500871419e-05
"3623",2.07611705604904e-14
