"","x"
"1",0.0214731728098805
"2",0
"3",0.234455171038989
"4",0.77374366750117
"5",0
"6",0
"7",5.44822071901763e-08
"8",0
"9",0.0773451553021564
"10",0.458913967519165
"11",0.00866065606359134
"12",1.13842268945064e-12
"13",0
"14",0
"15",1.11022302462516e-16
"16",2.19489339017276e-05
"17",0
"18",0
"19",0
"20",2.23241828856136e-06
"21",0.000176396008012225
"22",1.13086207065294e-11
"23",0
"24",0.02920892443448
"25",0
"26",0.000151289838012825
"27",0.0553062848608297
"28",0.924553713915338
"29",0.302466331177682
"30",0
"31",5.0756615022074e-08
"32",0
"33",0
"34",0.788885885356995
"35",0.12049600550539
"36",0.995564609035669
"37",0
"38",2.41806574763359e-13
"39",0.00491815919203631
"40",0.000100896177268939
"41",0.175392249426106
"42",0.609333841655995
"43",0
"44",0.000644053909942266
"45",0
"46",8.44430081414771e-11
"47",2.42704935926596e-07
"48",0.0830371164585771
"49",0
"50",0
"51",0
"52",0
"53",0.0001003517044601
"54",0.174423269064186
"55",0
"56",0
"57",0.346241255329367
"58",9.32254273777744e-13
"59",0
"60",0.000565963294031802
"61",0.0797453082089068
"62",0
"63",0.595699017283757
"64",0.462080390911022
"65",0.589011875341703
"66",0.576507228775552
"67",0.00279930424960739
"68",0.202413044558689
"69",0.913009297017656
"70",0.164042457612238
"71",8.36177810326078e-08
"72",0.02070770233865
"73",1.85904053928709e-07
"74",0.232701316651157
"75",0.0014125256295443
"76",0
"77",0
"78",0
"79",0
"80",0.00253647867843643
"81",0.0122526986051034
"82",0
"83",0
"84",4.96864993593249e-10
"85",0
"86",0.986530394459263
"87",0.843545944127467
"88",0.000223163408008875
"89",0.112621456495347
"90",0.000382290924827111
"91",1.31261079783229e-09
"92",0.0114823564544104
"93",0.295091596125116
"94",0.547728840027576
"95",0.695629106711042
"96",0.207284650589962
"97",0
"98",0.165801456706391
"99",0.434826534873834
"100",0.0710748631816231
"101",0.956015682485048
"102",0.514483287995794
"103",0.433992907537573
"104",0.554995761575691
"105",0.23458997894772
"106",0.484879687086067
"107",0.0639986475293096
"108",0
"109",0
"110",0
"111",0
"112",9.5617392702585e-05
"113",0.000141423984549749
"114",0.0275327454488361
"115",0.625560532342211
"116",0.000621565362972754
"117",0.0103700755209774
"118",0.00149934198990842
"119",0
"120",0.000221755837093496
"121",0
"122",0
"123",0
"124",0.0253216956646722
"125",0.00929998011047917
"126",0.0377847099438647
"127",0
"128",0.367561713294033
"129",0.68183287412617
"130",0.368002120666017
"131",0.829874245434874
"132",0.499610598023765
"133",0.0391235277266981
"134",0.46265205432657
"135",0
"136",0
"137",1.86078184720717e-05
"138",0.782961931501934
"139",0
"140",0.99019536187834
"141",0.46911052862387
"142",0
"143",0
"144",1.52636595051048e-05
"145",0.0930527715241114
"146",2.23713475522302e-08
"147",0.00640794847408876
"148",0.00919831845849184
"149",0.592373691707771
"150",0.00742572558212862
"151",0.000198553121637968
"152",0.882020685146541
"153",0
"154",0.0457447976973375
"155",0
"156",3.24103655024999e-09
"157",0.126787100678459
"158",0.252343407332679
"159",0.892742097402604
"160",0.893854055218522
"161",0.359166678504416
"162",0.0154839356421491
"163",0
"164",0
"165",0.00980164373449421
"166",1.81887168659856e-08
"167",0
"168",0
"169",0
"170",0.106348516769323
"171",0.559954754692333
"172",0.0184321879279655
"173",0
"174",0.100973486663033
"175",0
"176",0.0753899676847646
"177",0.0229578930198964
"178",0
"179",0.0237001750223568
"180",0.0335602953536897
"181",5.27800025906799e-13
"182",0
"183",0
"184",3.21566778760385e-08
"185",0.0618451467963368
"186",0.0768878803915709
"187",0.00294274835654107
"188",0.251762903799708
"189",0
"190",0.208043161922174
"191",6.36979580193042e-10
"192",6.13065931354129e-09
"193",0.000564928414498067
"194",0.0187620237264703
"195",0.00378860867554209
"196",0.0220322833909212
"197",0.00303780878268145
"198",0
"199",0.00106021386929078
"200",0.00220962337684927
"201",0.000778725052846929
"202",0.00964800853029391
"203",0.304599064319346
"204",6.67979005442021e-11
"205",3.4169944651552e-10
"206",0.789231712840497
"207",0.0202609301328306
"208",0
"209",0.0135520388479685
"210",0
"211",2.48054801654796e-06
"212",0
"213",0
"214",0.560077649174054
"215",0
"216",0
"217",0
"218",0
"219",0.00019968998899722
"220",0
"221",0
"222",6.23065691452984e-05
"223",2.19824158875781e-14
"224",0
"225",1.11022302462516e-16
"226",6.00356612313613e-05
"227",0.00185020300433003
"228",0.40406478865631
"229",0
"230",0
"231",0
"232",0
"233",2.84539058981181e-12
"234",2.63845582160194e-07
"235",0
"236",0
"237",6.12391484189345e-08
"238",0.000101153624098349
"239",0.0503373377994143
"240",0.0694778717055587
"241",0
"242",0.0309385363210442
"243",0.0139409252617375
"244",0.0450648938638438
"245",0.00303928608984039
"246",2.18491891246231e-13
"247",0.553293875818468
"248",0.400339263186188
"249",0
"250",0
"251",0.00753564110090499
"252",0.7766914723547
"253",0.028749335772676
"254",0.157001730452336
"255",0.314531259472573
"256",0
"257",0
"258",0.0158943363780644
"259",0.653661245851115
"260",0
"261",0.00232607298412058
"262",0.0301020944814233
"263",0.900201793953389
"264",0
"265",1.49102952207159e-13
"266",0.000251457194790028
"267",0.0261932237360384
"268",0.00304522801333529
"269",0.183885244899462
"270",0.0582756384402544
"271",1.52417962906437e-06
"272",0
"273",0
"274",0.00147253554703386
"275",9.7746089899875e-07
"276",0.000139892321415869
"277",0
"278",2.58904009342587e-13
"279",0.496954874197423
"280",0
"281",0.00554050316110311
"282",0.00299191496178941
"283",0.00871126198917882
"284",1.74689511175385e-05
"285",0.0233202044089391
"286",0
"287",1.23472573719807e-05
"288",0.00746313964756085
"289",0.226094598171014
"290",1.05760414537137e-07
"291",0.0235472438025316
"292",0.0610024477498587
"293",0.253097301704629
"294",0.0939609344669814
"295",0.270154240980165
"296",3.4253626934877e-07
"297",1.77551782092333e-05
"298",0
"299",0.043812382599824
"300",0
"301",0
"302",0.00669897232278749
"303",1.05544462059015e-11
"304",0.0182453224766604
"305",0.00357356355088989
"306",0
"307",0.00396843603577102
"308",0
"309",0
"310",0
"311",0
"312",0
"313",0.216032958691496
"314",0
"315",0
"316",1.64873105512608e-05
"317",0
"318",0
"319",0
"320",2.24165630685613e-05
"321",0
"322",1.73152494331585e-05
"323",0.0334763490930781
"324",0.0382124293667727
"325",0.0106347040102238
"326",0
"327",0.000636675960921762
"328",9.00148844351634e-11
"329",0
"330",0
"331",0
"332",8.6541884769531e-12
"333",0
"334",0
"335",0
"336",2.79641288780663e-06
"337",0
"338",0
"339",0
"340",0
"341",0
"342",0
"343",0.0669335757691365
"344",0
"345",0.457493309248106
"346",0.114665888855639
"347",0.451185874957434
"348",0.342443508137274
"349",9.84639942196441e-05
"350",0
"351",0.0142101895475386
"352",0.25174485837132
"353",0.209882456414781
"354",0.713785949215535
"355",0.893346158148391
"356",0.472084704835798
"357",0.275892805794589
"358",0.0139549920076585
"359",0.331645439635133
"360",0.197425167468383
"361",0.000429928589595008
"362",0
"363",0.0194674007778629
"364",0
"365",0.0941561972868163
"366",0.789246012144017
"367",0.443494967639886
"368",0.0165361577775583
"369",0.342228352564735
"370",0.13641187499332
"371",0.234470016426807
"372",0.364370174666086
"373",0.0264424443952748
"374",0.309828644208885
"375",0.103218692019211
"376",4.02784394726297e-09
"377",0
"378",1.07434949825347e-10
"379",0.272264173371685
"380",0
"381",2.06992423201768e-10
"382",0.564063543297157
"383",0.0461743687138469
"384",0.532371724499377
"385",0.018244776217743
"386",0.920112253631553
"387",0.9967115680573
"388",3.89295306046922e-06
"389",0.041422023625806
"390",0.100343928316271
"391",0.000643126446797315
"392",0
"393",0
"394",3.9623512337883e-06
"395",0
"396",0
"397",0.628263622474466
"398",0.692896529625938
"399",0.0393372689932807
"400",1.83805350939537e-08
"401",1.53210777398272e-14
"402",5.46335643392126e-10
"403",0
"404",0.00391045633901743
"405",0.000615272007695289
"406",0.00879624874716523
"407",0.0430947174893215
"408",0
"409",2.06976213945609e-10
"410",0
"411",2.0901133440665e-06
"412",0.326734643515611
"413",0.00771137885519868
"414",0.000102208610088583
"415",0
"416",0
"417",7.49056372484347e-11
"418",0.00249994060230996
"419",0
"420",6.52811138479592e-14
"421",0.000511217826581145
"422",0
"423",9.99200722162641e-16
"424",0.143228993370236
"425",0
"426",0
"427",0
"428",0
"429",0
"430",0
"431",0
"432",0
"433",0.0313909274580161
"434",0
"435",0
"436",0
"437",0
"438",0
"439",0
"440",0
"441",0
"442",0
"443",1.64313007644523e-14
"444",0.0272370923873008
"445",0
"446",0
"447",8.1399036511165e-08
"448",8.63642487858307e-07
"449",0
"450",0
"451",9.63239422002715e-07
"452",6.66133814775094e-16
"453",0
"454",0
"455",2.4979170509809e-08
"456",0
"457",0
"458",0
"459",0
"460",0.388446556632917
"461",1.99840144432528e-15
"462",0.00198730066998798
"463",0.148357373177546
"464",0.239534033791735
"465",4.46972425738323e-09
"466",0.268408577522736
"467",0.0798335963748675
"468",0
"469",0.251220748978422
"470",0
"471",0
"472",0
"473",0
"474",0
"475",0
"476",1.22124532708767e-15
"477",0
"478",0
"479",0
"480",0
"481",0
"482",0
"483",0
"484",0
"485",0
"486",0
"487",0
"488",0
"489",0.545225949135981
"490",0.00445413830336927
"491",0
"492",0
"493",0
"494",0
"495",0
"496",0
"497",1.0196278638297e-05
"498",0
"499",0
"500",0
"501",0
"502",1.08615133905809e-05
"503",0.00064598329630805
"504",1.11022302462516e-16
"505",0
"506",0.30260795761287
"507",0
"508",0
"509",0
"510",0
"511",0
"512",1.45175877985793e-08
"513",0
"514",0
"515",0
"516",0
"517",1.22257759471722e-12
"518",0.000736047078663038
"519",0.118640211573587
"520",0.000657588508093387
"521",0
"522",0
"523",0
"524",0.983273103898552
"525",0
"526",0
"527",5.6843418860808e-13
"528",0
"529",0
"530",1.04872741405471e-05
"531",0
"532",0
"533",3.35274819018849e-08
"534",0
"535",8.66089063800146e-08
"536",0
"537",0
"538",0
"539",0.299312033998236
"540",0.245054966007648
"541",0
"542",0
"543",0.0221224896609681
"544",0.0192426345187998
"545",0.524928678388132
"546",1.41803708519905e-06
"547",0
"548",0
"549",0.00273053009616586
"550",0
"551",0
"552",0
"553",8.31912960741477e-09
"554",0
"555",0
"556",0
"557",0
"558",0
"559",0
"560",2.55351295663786e-15
"561",0
"562",0
"563",0
"564",0
"565",0
"566",2.15098467659658e-06
"567",7.69877331219249e-07
"568",0
"569",0
"570",0
"571",0.0132443913239009
"572",0
"573",3.84137166520304e-13
"574",7.96007704195745e-12
"575",0
"576",0
"577",0
"578",0
"579",0
"580",0.52528582414354
"581",0
"582",0
"583",0
"584",0
"585",0
"586",0
"587",0
"588",0
"589",0
"590",0
"591",8.54871728961371e-15
"592",0
"593",0
"594",0
"595",0
"596",0
"597",0
"598",0
"599",0
"600",0
"601",0
"602",0
"603",0
"604",0
"605",0
"606",0
"607",0
"608",0
"609",0
"610",0
"611",0
"612",0
"613",0
"614",0
"615",4.41715356513939e-08
"616",0
"617",0
"618",0
"619",0
"620",0
"621",0
"622",0
"623",0
"624",0
"625",0
"626",0
"627",0
"628",0
"629",2.27950158748769e-09
"630",8.38218383591993e-14
"631",0
"632",0
"633",0.00962932672477701
"634",0
"635",4.55191440096314e-15
"636",0
"637",0
"638",0
"639",1.89517976867393e-08
"640",0
"641",0
"642",0
"643",0
"644",0
"645",0
"646",0
"647",0
"648",0
"649",9.4460894574655e-05
"650",0
"651",0
"652",0.0459860522816993
"653",0
"654",0
"655",5.13137310420575e-11
"656",0.000284251590577544
"657",0
"658",0.00590561220218022
"659",0
"660",0
"661",0
"662",0
"663",0
"664",1.11022302462516e-16
"665",0
"666",0
"667",0
"668",2.12942441457642e-10
"669",0
"670",0
"671",0
"672",0
"673",0
"674",0
"675",0.000216800343748491
"676",0
"677",0
"678",0
"679",1.4163158901237e-07
"680",7.57172102794357e-14
"681",0
"682",0
"683",0
"684",0
"685",3.0825301038595e-05
"686",2.92129143097952e-09
"687",3.20746667238359e-05
"688",0.00749842915384902
"689",0
"690",0
"691",2.43081869744088e-07
"692",0.33276696615307
"693",0.0712611482023366
"694",0
"695",0
"696",0.629024250682833
"697",0
"698",0.00465141413764092
"699",0
"700",0
"701",0
"702",0
"703",1.17996675415011e-05
"704",0.00168513939861581
"705",0
"706",4.96609322564456e-06
"707",0
"708",0
"709",0
"710",0
"711",0.720339340488561
"712",6.08312373677755e-05
"713",0.00896844741309466
"714",0.136840922519693
"715",0.801657214476407
"716",0.232561252372529
"717",0
"718",0.060880219025313
"719",0
"720",3.31673791764686e-08
"721",0.0398781460532677
"722",0.03062922051818
"723",0
"724",0.00907417277104194
"725",0
"726",0.0280345023560421
"727",0
"728",0.00536165247280929
"729",5.60622997813898e-06
"730",0
"731",0
"732",0
"733",0
"734",0
"735",1.48569800906273e-09
"736",0
"737",0
"738",0
"739",0
"740",0
"741",0
"742",0
"743",0
"744",0
"745",0
"746",0
"747",0
"748",2.8156521558742e-10
"749",0
"750",0
"751",0
"752",0
"753",0
"754",0.812628184522621
"755",0
"756",0
"757",0
"758",1.5563094409865e-06
"759",0.391335707524003
"760",0.0331673952438262
"761",0.00219984099750836
"762",0
"763",0
"764",0
"765",0.0273511655220203
"766",0.00680387299208396
"767",0.0200493473355363
"768",1.46549439250521e-14
"769",0
"770",0
"771",0
"772",0
"773",0.00625279836654657
"774",0.0876649206860155
"775",0
"776",0
"777",0
"778",2.64995774411636e-05
"779",0.0333708996524854
"780",0.00731622595150583
"781",0.87923408307569
"782",0.477521698582592
"783",0.468803968581555
"784",0
"785",0
"786",1.32058131097068e-09
"787",1.2388948897879e-06
"788",0.00325017480819223
"789",0.0628487520313294
"790",6.56264996863332e-05
"791",0
"792",0
"793",8.10462807976364e-14
"794",0.873967946299134
"795",0
"796",0
"797",1.33046307304596e-09
"798",0
"799",0
"800",0
"801",0.000293746404169459
"802",0.000237225518510131
"803",0
"804",0
"805",0
"806",0.119698090926418
"807",0
"808",0.0493356517007905
"809",0
"810",0
"811",0
"812",7.40236912669667e-05
"813",2.03825640405775e-05
"814",0
"815",0.0441145610323528
"816",0.00219217858124099
"817",0
"818",1.61168460934835e-05
"819",0
"820",0
"821",0
"822",0.178643715880571
"823",0.00421521881719134
"824",0.000528298213576917
"825",0
"826",0
"827",0.00949325381848154
"828",0
"829",0
"830",0
"831",0
"832",5.01820807130571e-13
"833",2.15805435854755e-07
"834",0
"835",0
"836",1.75948144942595e-12
"837",1.10911280160053e-13
"838",4.38333480623498e-10
"839",0.000426389029429597
"840",0
"841",0
"842",2.91322521661641e-13
"843",0
"844",0.641854299527232
"845",0
"846",0
"847",0
"848",0
"849",0
"850",0
"851",0
"852",0.602974899906643
"853",8.2482665142436e-10
"854",0
"855",4.45412028926562e-07
"856",0
"857",0
"858",0.191501705269219
"859",0
"860",0
"861",0
"862",0
"863",0
"864",0
"865",3.20163062128564e-06
"866",0.0356568335689995
"867",0
"868",0
"869",7.27563032043577e-09
"870",0
"871",0
"872",1.19793064357054e-13
"873",0.00947084472234161
"874",0.106528041354505
"875",0.252822224055755
"876",0
"877",0
"878",0
"879",0
"880",0
"881",0
"882",0.353627221342862
"883",0
"884",0
"885",0.0301309088245867
"886",0
"887",0.00989766292406724
"888",0.000346077731734007
"889",4.63025460321065e-05
"890",0
"891",0
"892",0.169698996092185
"893",0
"894",0
"895",0.000340913052019776
"896",0
"897",0
"898",0.0344832776887536
"899",0.00240669047199549
"900",0
"901",0.00916319008702293
"902",0.121987304573099
"903",0.0125246119815637
"904",0
"905",0
"906",0
"907",0
"908",0.465634127377041
"909",0
"910",0
"911",0
"912",4.76309858221668e-09
"913",0
"914",0
"915",0
"916",0
"917",0.0142623719591881
"918",0.0212248977663719
"919",1.20713767870484e-08
"920",0
"921",0
"922",0.897174169480742
"923",0
"924",0
"925",1.95184377549396e-08
"926",0
"927",0
"928",0
"929",0.00920743286530645
"930",0
"931",8.21565038222616e-15
"932",0.0384245749396031
"933",0.422573340971935
"934",0.000306989233472055
"935",0.272642617765923
"936",0.304703913848949
"937",8.26507751128247e-11
"938",0
"939",1.72163161504812e-09
"940",0
"941",6.32827124036339e-15
"942",2.320172186554e-05
"943",1.75415237890775e-13
"944",0
"945",0
"946",0
"947",0
"948",0
"949",0
"950",1.08912878715728e-13
"951",0
"952",0.191645480931225
"953",0.00209303159912511
"954",0
"955",0
"956",0
"957",0
"958",0
"959",0.0104018875416538
"960",0
"961",0
"962",2.67985555968409e-09
"963",8.6641209802174e-05
"964",0.112323697179583
"965",0
"966",0
"967",0
"968",0
"969",0
"970",1.50680833366224e-06
"971",4.12688994089194e-10
"972",0
"973",0.00707051361200917
"974",0
"975",2.4034946255469e-09
"976",0
"977",0
"978",0
"979",0
"980",0
"981",0
"982",0
"983",0
"984",0
"985",0
"986",0
"987",3.42152295385034e-09
"988",0.297663998913469
"989",0
"990",0
"991",0
"992",0
"993",0
"994",0
"995",0.000524052822265975
"996",0.0523555913557198
"997",0.202946317544647
"998",0
"999",0
"1000",0.0641194247216526
"1001",0
"1002",0.0112336771972719
"1003",0.183440680040086
"1004",0
"1005",1.82774801960051e-08
"1006",1.09792370750483e-08
"1007",7.7715611723761e-16
"1008",0
"1009",5.121422553378e-06
"1010",0
"1011",0
"1012",1.80189196896663e-12
"1013",0
"1014",0
"1015",0
"1016",0
"1017",0
"1018",0
"1019",0.0327157153609845
"1020",0.13212635841035
"1021",0
"1022",0
"1023",0
"1024",0
"1025",0.000499279147612053
"1026",0
"1027",7.44509331962462e-09
"1028",0
"1029",0
"1030",1.46649212273697e-06
"1031",0.238788356530747
"1032",0
"1033",0
"1034",0
"1035",0
"1036",0
"1037",0
"1038",0
"1039",1.45556001807101e-07
"1040",0
"1041",0
"1042",0
"1043",0
"1044",0
"1045",0
"1046",0
"1047",0
"1048",0
"1049",0
"1050",0.015559417567038
"1051",0
"1052",0
"1053",0
"1054",0.0768689731484633
"1055",0
"1056",0
"1057",0.0728994456477037
"1058",0
"1059",0
"1060",0
"1061",0
"1062",0
"1063",0
"1064",0
"1065",0.0317665672442301
"1066",0
"1067",0
"1068",0.251657498973435
"1069",0.00151451298763838
"1070",0
"1071",0
"1072",0
"1073",0.894574571154451
"1074",0.046952673386876
"1075",0
"1076",0
"1077",0.563052233003581
"1078",0.318737138939003
"1079",0.0251210719330229
"1080",3.93585164459864e-12
"1081",0.00596857103077419
"1082",0.00458715528611642
"1083",0
"1084",5.25698505685623e-05
"1085",0
"1086",8.99447868352166e-06
"1087",0.0779012449705028
"1088",0.0552623099758718
"1089",1.0650047510552e-10
"1090",0
"1091",0.000187913252903904
"1092",0.000636296297867767
"1093",0
"1094",0
"1095",0
"1096",0
"1097",0
"1098",0
"1099",0
"1100",8.19615777469807e-08
"1101",0.221859724270672
"1102",0.000145317864645556
"1103",0.00341582173833332
"1104",0.000246264182984457
"1105",1.28700032797635e-06
"1106",0.0113996759439776
"1107",3.00865365954195e-09
"1108",5.71399164311925e-05
"1109",0.0821633581466037
"1110",0.305287727297781
"1111",0.00745541237156588
"1112",0.177866345643818
"1113",0.000826556952001734
"1114",0.132234036856065
"1115",0.00026632373898694
"1116",0
"1117",0
"1118",0.00254166300289649
"1119",3.10513238344079e-06
"1120",0.00642708878294429
"1121",0
"1122",3.3343882455128e-07
"1123",0.0506802330535649
"1124",0.00385797328626258
"1125",7.75210307057961e-09
"1126",0.0026270033674971
"1127",0.00381466180857315
"1128",1.21241284678497e-07
"1129",0.0380257396299742
"1130",0.00126215545010844
"1131",0.00147193254886346
"1132",5.89585724706243e-05
"1133",3.01242380695843e-06
"1134",6.25709839674471e-06
"1135",0.00031038435685149
"1136",2.83022627556306e-09
"1137",0.000149701750110087
"1138",0.000979468923989479
"1139",0
"1140",4.81267359297988e-10
"1141",5.49815075234772e-06
"1142",0.000115187288105001
"1143",0.038096076669704
"1144",1.44338280549938e-07
"1145",1.57886225204962e-08
"1146",0.00398175603261242
"1147",0
"1148",3.12169587290967e-07
"1149",0.0428082700688592
"1150",9.66110524913688e-11
"1151",0.435349922047534
"1152",0
"1153",6.60281829212295e-11
"1154",0.00711635049554182
"1155",0.0402751203224273
"1156",0.256567214110223
"1157",3.70546052799181e-05
"1158",0.0274833359975437
"1159",2.87547763377916e-14
"1160",0
"1161",0
"1162",2.28441897620613e-08
"1163",0.000415926840499847
"1164",0.0108786519280786
"1165",0.0771265623255906
"1166",0
"1167",0
"1168",0
"1169",0
"1170",0
"1171",0
"1172",2.04802780290336e-08
"1173",0
"1174",0.0111785317633284
"1175",0.00027140854492691
"1176",2.03563156797593e-06
"1177",0
"1178",0.00048562129738694
"1179",0
"1180",1.98232295023359e-08
"1181",0
"1182",5.74825376187249e-09
"1183",0.0694380070987102
"1184",0.151408500019041
"1185",0.223983677016052
"1186",0.00439072631463322
"1187",0
"1188",0.143662985882991
"1189",0.0122371811166203
"1190",0.00394020864995848
"1191",0.000737013028274447
"1192",0.00129705394896706
"1193",4.17634928495669e-06
"1194",0
"1195",2.81240253308113e-10
"1196",0.012782599170175
"1197",5.20703122841581e-08
"1198",0.127582598392457
"1199",6.37805370673483e-06
"1200",3.23618909447987e-12
"1201",4.65540047622781e-08
"1202",0.0039727925821903
"1203",0.0572676486243601
"1204",0.00159714165383362
"1205",0
"1206",2.53090665869316e-07
"1207",0.00549492658938489
"1208",0.000592301682500129
"1209",0.000194807225648019
"1210",2.07449026845552e-08
"1211",0
"1212",0.0222872185529572
"1213",0
"1214",0
"1215",0
"1216",0
"1217",0
"1218",0
"1219",9.39082145379189e-12
"1220",0.325017785928838
"1221",0.0107446293642826
"1222",0
"1223",0
"1224",0.00162424306287023
"1225",0.000128369580339238
"1226",0.00123281231704275
"1227",0.0340906812394338
"1228",0
"1229",0
"1230",0
"1231",0.000345905530627189
"1232",8.57354931493859e-09
"1233",0
"1234",0
"1235",0
"1236",0.0395534897543722
"1237",0.200144856785659
"1238",0
"1239",0
"1240",0
"1241",0
"1242",0.00526495030195095
"1243",7.52729989450529e-10
"1244",0.356244294186079
"1245",0
"1246",0
"1247",0
"1248",0
"1249",0
"1250",0.00513820709955737
"1251",0
"1252",0
"1253",0.207362511821671
"1254",0
"1255",0.707458079432187
"1256",1.21196172397919e-06
"1257",0.339172480764459
"1258",0
"1259",0
"1260",0
"1261",0
"1262",0.241496493267498
"1263",0.00286390595592967
"1264",0.0245001291412933
"1265",0.00601129495977926
"1266",0
"1267",5.90730738151413e-05
"1268",0.330139470641121
"1269",7.66046159839107e-09
"1270",0.00607657152940766
"1271",0.126385793529156
"1272",0.942771178268132
"1273",0
"1274",0.161942942067121
"1275",0.930340961995152
"1276",0.0106157039504164
"1277",3.70814490224802e-14
"1278",0.399519305349766
"1279",0
"1280",3.10862446895044e-15
"1281",7.24163751650853e-05
"1282",0
"1283",8.65587061704698e-06
"1284",0
"1285",0
"1286",0
"1287",0
"1288",0.078191958393649
"1289",0
"1290",0
"1291",0
"1292",0
"1293",0.0216157335749225
"1294",0
"1295",6.66133814775094e-16
"1296",0
"1297",0
"1298",0
"1299",0
"1300",0
"1301",6.1776428417204e-10
"1302",0
"1303",0
"1304",0
"1305",9.05830965791665e-13
"1306",0
"1307",0
"1308",0
"1309",0
"1310",0.00536376640255221
"1311",0
"1312",1.61914368579374e-08
"1313",0
"1314",0
"1315",0
"1316",6.19104521237812e-06
"1317",0
"1318",0.00668656354116104
"1319",0
"1320",0
"1321",0
"1322",2.1724766488429e-05
"1323",0
"1324",0
"1325",0
"1326",2.26307861339592e-12
"1327",0
"1328",0
"1329",0
"1330",0
"1331",0.0174928900258791
"1332",0
"1333",0.00564262760312351
"1334",0.131132825715799
"1335",0
"1336",0
"1337",0.0085763016313597
"1338",0
"1339",0
"1340",0.257861841563736
"1341",0
"1342",0
"1343",1.76696990372704e-10
"1344",0
"1345",0
"1346",0
"1347",0.048995522277706
"1348",0.00318621712129008
"1349",2.91812735064845e-06
"1350",0
"1351",0
"1352",0
"1353",7.74852735418996e-07
"1354",0
"1355",0.192307035706581
"1356",0.209547581354458
"1357",0
"1358",0.0138259389377584
"1359",5.71143595751167e-08
"1360",0
"1361",0
"1362",0.017143486486793
"1363",4.22726298410225e-11
"1364",0
"1365",0
"1366",0
"1367",0
"1368",0
"1369",0.367964371541616
"1370",5.95397314573365e-06
"1371",0
"1372",0
"1373",0
"1374",0.513347082732318
"1375",0
"1376",0.686736341197489
"1377",0.444671404260661
"1378",0.354421389085928
"1379",0
"1380",0
"1381",0
"1382",0
"1383",0.0391916605792226
"1384",0.0332247781044961
"1385",0.289904301168671
"1386",0.187480673912515
"1387",0
"1388",0
"1389",1.43218770176645e-14
"1390",0
"1391",0
"1392",0
"1393",0.0027186409229345
"1394",0.0151739866185291
"1395",0
"1396",0.756203069020113
"1397",0.307900859991602
"1398",0.0142892357210841
"1399",0
"1400",8.38103956568581e-06
"1401",0.0589332271208158
"1402",0.707472998702259
"1403",0.00453154933547439
"1404",0.000168258959984513
"1405",0.0368450037602979
"1406",0.126516308851192
"1407",0
"1408",0.000125999549661859
"1409",0
"1410",0
"1411",0
"1412",0
"1413",0.0182953119728618
"1414",0
"1415",0.469170862946429
"1416",0.010832507726382
"1417",0.000837926883779372
"1418",0.340743144966831
"1419",0.000779600657791257
"1420",0.0605888698280075
"1421",0
"1422",0
"1423",0.0876969754645109
"1424",0
"1425",0.0407032537555538
"1426",0.182786673501923
"1427",0.524624466154343
"1428",0.255609741154281
"1429",0.404776400637211
"1430",0.000163811298530714
"1431",0.455078692941696
"1432",0.730099305785203
"1433",0.740465899977972
"1434",0.132821772034573
"1435",0
"1436",0.0093147632467776
"1437",0
"1438",2.77137790494209e-09
"1439",0.229227017996726
"1440",0.61668589568477
"1441",0.107161852729374
"1442",0.000738779117891775
"1443",0.0126346419362922
"1444",0.122627800360342
"1445",0
"1446",0.449499010459727
"1447",0.151711646531508
"1448",0.284171989388822
"1449",0.151573298710919
"1450",0.632826366472743
"1451",0
"1452",0.00027749308222258
"1453",0.048114870303667
"1454",4.41557901353917e-12
"1455",0.327131705628515
"1456",0
"1457",0
"1458",0.520504174900201
"1459",0.128653540899739
"1460",6.84661372374329e-07
"1461",0.191807996451034
"1462",0.0447857355568888
"1463",0
"1464",7.66952067580151e-05
"1465",0.783214844593103
"1466",0.0976071012038761
"1467",0.210084219054679
"1468",5.29392940595841e-09
"1469",0.0724917490404152
"1470",0
"1471",0
"1472",0.0130397292617389
"1473",0
"1474",0
"1475",0
"1476",0
"1477",0
"1478",0
"1479",0
"1480",0.0973630742846986
"1481",5.33149662564902e-05
"1482",0.0643172643298277
"1483",0.054860237770664
"1484",0.29765341770659
"1485",0
"1486",0.23513708553764
"1487",4.41891357139124e-06
"1488",4.2033593050661e-08
"1489",0.00507394998855626
"1490",0.251939711344763
"1491",0
"1492",4.61997843620443e-05
"1493",0
"1494",0.778989491408111
"1495",0
"1496",0
"1497",0.0597976802089739
"1498",0.0310549155893221
"1499",0
"1500",0
"1501",0
"1502",0
"1503",0
"1504",0
"1505",0.427515521131073
"1506",0
"1507",0
"1508",0.379587016036861
"1509",1.41191569547061e-09
"1510",0
"1511",0
"1512",0
"1513",0
"1514",0
"1515",0
"1516",0.281254998224302
"1517",0
"1518",0
"1519",0
"1520",0.0013193346019601
"1521",0
"1522",0.000246746042066204
"1523",0
"1524",0
"1525",0
"1526",0.00054669163524812
"1527",0
"1528",0
"1529",0.0151318339106699
"1530",0.00305641033067738
"1531",0
"1532",5.80403376579941e-05
"1533",0
"1534",0.0447232981333344
"1535",0.0193140335599216
"1536",0
"1537",5.87123498781983e-05
"1538",0.411164629731646
"1539",0.0732104682112547
"1540",0.306030648736126
"1541",0.640342312047948
"1542",0
"1543",0.159079701787069
"1544",0.168553671370442
"1545",0.309435074903917
"1546",0.629654517220909
"1547",0.000350234514311487
"1548",0.27636595295182
"1549",0.310303903671616
"1550",0.000253934934388522
"1551",0.985633166016327
"1552",0.382217447783552
"1553",0
"1554",0.571028831040389
"1555",0.562670782420144
"1556",0
"1557",0.682600012077888
"1558",0.808485840917554
"1559",0.0249519899924292
"1560",0
"1561",0
"1562",0
"1563",0.547390204364574
"1564",0.171526468367431
"1565",0.00287152500111754
"1566",0.641002962441056
"1567",0.281883530293982
"1568",0.227465326689616
"1569",0
"1570",0.52686183593044
"1571",0
"1572",0.00868488362081365
"1573",2.90227151644729e-07
"1574",0.00342389638521756
"1575",0
"1576",0.0505924763846896
"1577",0.232074027648046
"1578",9.12830921961927e-11
"1579",1.11022302462516e-16
"1580",0.0014904223271841
"1581",0.000363844344567155
"1582",0
"1583",0.00397835649934031
"1584",0.826699349845541
"1585",0.119766245055928
"1586",0
"1587",0
"1588",0.0116297464598623
"1589",0.0443171409858766
"1590",7.3849598044573e-06
"1591",0
"1592",0.153347759036058
"1593",0.243686680887675
"1594",0
"1595",0.000266767351713271
"1596",5.44154108869099e-05
"1597",0.0197673274729787
"1598",0.0214542675513101
"1599",6.41687672858771e-05
"1600",0.0541736100532464
"1601",7.58282325818982e-14
"1602",0.00165521299519822
"1603",0
"1604",0
"1605",5.30777422891315e-06
"1606",0.214201042425813
"1607",5.21225880190102e-06
"1608",0
"1609",0
"1610",2.33817409878156e-11
"1611",0
"1612",4.97142631505909e-08
"1613",0.0100818981747467
"1614",0
"1615",0
"1616",0.00115634960803745
"1617",0.00461432798687778
"1618",0
"1619",0
"1620",0
"1621",1.26756917184778e-08
"1622",0
"1623",0
"1624",0
"1625",0
"1626",0
"1627",0
"1628",0
"1629",0
"1630",0
"1631",0
"1632",0
"1633",0
"1634",0
"1635",0
"1636",0
"1637",0
"1638",0
"1639",0
"1640",0
"1641",0
"1642",0
"1643",0
"1644",0
"1645",0
"1646",0
"1647",0
"1648",0
"1649",0
"1650",0
"1651",0
"1652",0
"1653",0
"1654",0
"1655",0
"1656",6.10622663543836e-15
"1657",0
"1658",0.0737546954672734
"1659",0.0604653696334605
"1660",5.03488129740548e-05
"1661",0
"1662",0.657461271760918
"1663",0.020766205560327
"1664",7.59720675558295e-06
"1665",0
"1666",4.48275747441107e-05
"1667",0.00169382714987243
"1668",0.000140836823103396
"1669",0.558986798120378
"1670",0.28605206006114
"1671",0
"1672",0
"1673",0
"1674",0
"1675",0.26061095237394
"1676",4.34484219713482e-08
"1677",0.365537918467954
"1678",0
"1679",0
"1680",0
"1681",7.41628980449605e-14
"1682",0
"1683",3.53588269774718e-11
"1684",0
"1685",4.36301328399225e-10
"1686",0
"1687",0
"1688",0
"1689",0.324155399138302
"1690",0.00476544777523424
"1691",0.0768485603609446
"1692",0
"1693",0
"1694",2.69998168156427e-07
"1695",6.25559126721242e-09
"1696",0.00317910228305807
"1697",0
"1698",0
"1699",0.501168702221053
"1700",0
"1701",0
"1702",0
"1703",0
"1704",0
"1705",0
"1706",0
"1707",0
"1708",5.56053460374351e-05
"1709",0
"1710",0
"1711",0
"1712",0
"1713",0
"1714",0
"1715",0
"1716",0
"1717",0
"1718",1.03037682142038e-06
"1719",0.0202966627174673
"1720",0.010905403329621
"1721",0.000441554657940157
"1722",0.106110994784209
"1723",2.35268417803081e-05
"1724",0
"1725",0
"1726",0
"1727",0
"1728",0.00103817650183802
"1729",6.87237333707458e-09
"1730",0.00384478966243385
"1731",1.24233893196157e-05
"1732",0.00572313900963384
"1733",2.54161479640302e-08
"1734",6.26847456453028e-05
"1735",0
"1736",0
"1737",0.0136864659765928
"1738",0
"1739",1.33226762955019e-15
"1740",0
"1741",5.95332406853055e-05
"1742",0
"1743",0
"1744",0.0214760652252413
"1745",0
"1746",0.00702734095121238
"1747",0.0171941365630967
"1748",0
"1749",0
"1750",0.00308205962570818
"1751",1.05177738518591e-07
"1752",5.55111512312578e-16
"1753",8.71857658036879e-05
"1754",0.00115079815460128
"1755",7.68128295081105e-06
"1756",0
"1757",4.55739477260853e-05
"1758",0.0580453886565334
"1759",1.37446358439153e-06
"1760",0.0401582683865925
"1761",0
"1762",0
"1763",0
"1764",0.180199264273093
"1765",0.000126579083482015
"1766",7.55308038336011e-11
"1767",0
"1768",0
"1769",0.00422673918758143
"1770",0.303953019597466
"1771",0.485433031113682
"1772",0
"1773",1.01219033155076e-12
"1774",0
"1775",0
"1776",0
"1777",0
"1778",0
"1779",0.000119412287276521
"1780",2.7485085013379e-05
"1781",0
"1782",8.24817991684768e-12
"1783",0.585861758363247
"1784",8.66529070719935e-13
"1785",1.11022302462516e-16
"1786",0.104980055401661
"1787",0.00294729890604184
"1788",0
"1789",1.16672674632667e-07
"1790",0
"1791",0.157815174674028
"1792",0
"1793",0
"1794",0.00358990333246234
"1795",0.00200209876034152
"1796",0.153167277567843
"1797",0
"1798",1.52710530975098e-05
"1799",0.0711370272072149
"1800",0
"1801",0
"1802",0.16598451684993
"1803",0.192040592550483
"1804",0.626579670932952
"1805",0.136499586858787
"1806",0
"1807",0
"1808",0
"1809",0.000372582691519741
"1810",2.35985639918113e-08
"1811",0
"1812",0
"1813",0
"1814",0.19272158891506
"1815",0.0307649325447465
"1816",0.0932472925186461
"1817",0.482518607178557
"1818",0
"1819",0.850819504998932
"1820",0.000355761484293837
"1821",0.284592389696445
"1822",6.25745942994804e-06
"1823",0.547278500867339
"1824",0.689831073425684
"1825",0
"1826",0.376229457575172
"1827",0
"1828",0
"1829",6.66133814775094e-16
"1830",0.250403113649012
"1831",0.0447926974542494
"1832",0
"1833",0.00125599780560204
"1834",0.642760893354453
"1835",0.0887041204583845
"1836",2.69784194983913e-14
"1837",0.865466555490477
"1838",0.678208053180046
"1839",0.32454585880347
"1840",0.908173319183068
"1841",0
"1842",0
"1843",0.00402189968691002
"1844",0.0148210659026242
"1845",0.335959710722242
"1846",0.0133222476911483
"1847",2.01472366467836e-05
"1848",3.99236199655206e-13
"1849",0.957542898106412
"1850",1.99021658230381e-05
"1851",2.68679038475383e-05
"1852",0.475836001743875
"1853",0.463294090804869
"1854",0.0755689055017515
"1855",0.15871736333937
"1856",0.0627395482254507
"1857",0.16634687622314
"1858",0
"1859",0
"1860",0
"1861",0
"1862",4.85045337228485e-12
"1863",0
"1864",3.59520129222801e-08
"1865",1.69272373895524e-11
"1866",4.20631055808585e-06
"1867",0
"1868",2.72319156113809e-09
"1869",9.99264448964254e-10
"1870",0.000291012927313483
"1871",0.00794938986467597
"1872",0.0136969593231941
"1873",0.0109652536635531
"1874",0
"1875",0.134574860687981
"1876",0.103750665339168
"1877",0.296014042761143
"1878",0.00019700718393667
"1879",1.31226052246802e-09
"1880",0.00248046814577418
"1881",0.0271419712711244
"1882",0
"1883",0.024413901080731
"1884",0.166348648547848
"1885",0.288807374286397
"1886",0.914967328701583
"1887",0.968192389106763
"1888",0.0877137308847524
"1889",0.0486669391172443
"1890",1.5500192240836e-09
"1891",0.00281866694393751
"1892",0.0507498706291631
"1893",1.47807766026631e-10
"1894",3.10862446895044e-15
"1895",0.00478100645232915
"1896",0.765516634197377
"1897",0
"1898",0
"1899",1.775624092204e-11
"1900",0
"1901",1.16977889689229e-05
"1902",1.54373571703559e-08
"1903",0.0315815479127409
"1904",0.0688780172793455
"1905",0.0121740315734538
"1906",0.310856298288981
"1907",0.921544455357927
"1908",0.798713317680628
"1909",0.212701583834406
"1910",0.0248060115718922
"1911",0.354624106699756
"1912",0.218901711389102
"1913",0.593743250081566
"1914",0.0127500735279451
"1915",0.470083673368085
"1916",0.503855687389236
"1917",5.93292082129437e-12
"1918",0
"1919",0
"1920",0.940812827825497
"1921",4.44089209850063e-16
"1922",0.0128904706386225
"1923",0.231923672193096
"1924",0.0341739821853362
"1925",0.511688050456968
"1926",0.642169510507591
"1927",0.101547108556529
"1928",3.89135454748057e-07
"1929",0.112083846150672
"1930",0.883159165921417
"1931",0.651371471073771
"1932",1.05296882324524e-11
"1933",0.435820579996204
"1934",0.0053413194285632
"1935",0
"1936",0.118925634613967
"1937",3.73544528642356e-11
"1938",0.218062162198586
"1939",0.18701877046765
"1940",0
"1941",0
"1942",0.420474223417125
"1943",0.957431703413673
"1944",0.00168404798952904
"1945",0.404423391606357
"1946",0.00977479839935047
"1947",0.00139881115792451
"1948",4.64073224293315e-13
"1949",3.43391981516561e-13
"1950",1.028227162303e-07
"1951",0.00989910140040939
"1952",0.000236078743905299
"1953",2.31955623275493e-06
"1954",9.05783102966851e-08
"1955",0
"1956",3.10570347217265e-10
"1957",0.10085639263651
"1958",0.00278031118679678
"1959",0.671592977173971
"1960",0
"1961",2.79678769032898e-09
"1962",1.11022302462516e-16
"1963",1.26101430408809e-07
"1964",0.349217574436528
"1965",0.379392617649164
"1966",0
"1967",5.02261395807224e-07
"1968",0.0107323237095799
"1969",0.101072669232056
"1970",0.500725114839931
"1971",0.000273240202299574
"1972",0
"1973",0.000237160683063342
"1974",2.64455124465712e-13
"1975",0.0643868347938774
"1976",0.0206673219455022
"1977",0.929671283298137
"1978",0.0258052425373922
"1979",0.913509117643476
"1980",0.564717006895733
"1981",0.00371696367110363
"1982",0
"1983",0
"1984",0.0182509264547072
"1985",2.42800934913134e-08
"1986",0.14809290287717
"1987",0.207528907525588
"1988",0
"1989",1.63563379838028e-05
"1990",1.01065444901849e-08
"1991",1.5387240188236e-05
"1992",2.72414045258129e-05
"1993",0.0791460392852509
"1994",0.117619593681967
"1995",0.659574599511398
"1996",6.06776384692864e-09
"1997",5.6887827781793e-13
"1998",0.514574242705193
"1999",0.478592718515205
"2000",0.234486504043016
"2001",0.0247963160083299
"2002",6.83799164925558e-05
"2003",6.41937741630016e-06
"2004",0.257258815416839
"2005",0
"2006",3.78803988176912e-10
"2007",0.0831181871376719
"2008",0
"2009",4.11744430450778e-06
"2010",3.63212687926051e-07
"2011",0
"2012",0
"2013",0
"2014",0.0236681625603782
"2015",0.0912148223966859
"2016",0.0102217377346482
"2017",0.0346937959691647
"2018",0.472062229842847
"2019",0
"2020",1.50609607751928e-06
"2021",0.000312100144111982
"2022",2.22044604925031e-16
"2023",3.10019474158985e-06
"2024",0.174967891743451
"2025",0.00685221132700187
"2026",0.00113544068282334
"2027",0.345891558798741
"2028",0
"2029",0
"2030",0
"2031",3.33026206611464e-09
"2032",0
"2033",0.309203052150455
"2034",0.0667309417302643
"2035",0.687386906796663
"2036",0.371576320765008
"2037",0
"2038",6.6427666067792e-07
"2039",0.455774336798711
"2040",0.025343539763206
"2041",6.02230982971186e-06
"2042",0.000228024259879556
"2043",0.0190593812671696
"2044",0.00745525133290326
"2045",0.416139492948048
"2046",0.526067258342792
"2047",0.0164045540955789
"2048",0.000100450975420663
"2049",0.0413397495677673
"2050",0.000824057222492347
"2051",0.0819440974511148
"2052",0.829061829364674
"2053",0.527002770757123
"2054",0.0758427032645637
"2055",0.0933746631941753
"2056",0
"2057",4.15808178539923e-05
"2058",0.100135192557662
"2059",1.82348360966422e-07
"2060",0.19796795983933
"2061",0.00481958040181174
"2062",0.651474764031182
"2063",0.0472003903066108
"2064",1.05438990871676e-11
"2065",1.36113342819044e-13
"2066",0
"2067",3.4793912639941e-08
"2068",0.242252323274028
"2069",0.0143003330273924
"2070",0.235824447250756
"2071",2.41274798257196e-05
"2072",0.243427214419288
"2073",0.010924736430324
"2074",0.0589848555508989
"2075",0.123162753606427
"2076",2.77901550216342e-07
"2077",0.0771778673850905
"2078",0.00286860170734193
"2079",0.078826970366611
"2080",0.0675442165399175
"2081",0.0878628042884759
"2082",0.12335391805196
"2083",0.192751406880841
"2084",0.0564117727241212
"2085",0.713916972176338
"2086",0.0643096166460125
"2087",0
"2088",0.0880329376226188
"2089",0.202103726835193
"2090",0.440382555931835
"2091",0.585144636796801
"2092",0.00210991982705755
"2093",0.243802712066511
"2094",0.809356034042371
"2095",0.702935880928692
"2096",0.0460346885823687
"2097",0.381529744495926
"2098",0.608953978243649
"2099",0.387499814362971
"2100",0.649240012021894
"2101",0.37695673091918
"2102",0.00295358023563819
"2103",0.104895246144184
"2104",0.212734263368688
"2105",0.263109945672124
"2106",0.0763364636457038
"2107",0.104761173455068
"2108",0.774930148755685
"2109",0.518103276271028
"2110",0.0993217439914231
"2111",0.243546404097327
"2112",9.83775294560729e-09
"2113",0.234417961223582
"2114",0.348093006601555
"2115",0.648293996398063
"2116",0.190840697037687
"2117",0
"2118",0
"2119",0
"2120",0
"2121",0
"2122",0.00167709325121457
"2123",0
"2124",0.0126886828226619
"2125",1.51358549360658e-07
"2126",0.0176651007354635
"2127",0.142088102068499
"2128",0
"2129",0
"2130",0
"2131",6.10066043885693e-05
"2132",0.483309383631699
"2133",0
"2134",1.96509475358653e-14
"2135",0
"2136",0.00460614490391176
"2137",0
"2138",0.261492635647709
"2139",0.763541946199325
"2140",9.68822550695414e-06
"2141",0.0794451746015933
"2142",0.206484126327268
"2143",0.00266098665583869
"2144",0.0303773151134497
"2145",0
"2146",0
"2147",0
"2148",1.88404734147163e-07
"2149",0
"2150",3.70552695194704e-08
"2151",0
"2152",0
"2153",0
"2154",1.79856129989275e-14
"2155",0.00206069689123933
"2156",0.0619965036275538
"2157",0
"2158",1.38640989910677e-07
"2159",0
"2160",1.23234755733392e-14
"2161",0.00791073301654699
"2162",2.19331219852847e-10
"2163",0
"2164",0.184968368082842
"2165",0.000814336935850979
"2166",0
"2167",0
"2168",6.88362065126569e-08
"2169",4.90718576884319e-14
"2170",0.000677871154329712
"2171",0
"2172",0
"2173",0.163544357083521
"2174",9.25882270852441e-08
"2175",0.0742514184252123
"2176",0.139299322987166
"2177",0.00024458890789214
"2178",0.345189412633409
"2179",0.21319875472563
"2180",8.38246299039724e-08
"2181",0
"2182",0.0487519211736677
"2183",0
"2184",0
"2185",9.75843268723464e-05
"2186",0.0276168723656276
"2187",0.000262948829905407
"2188",0.772114907450257
"2189",0.0310927918664425
"2190",0.141060719920612
"2191",0.016426836458013
"2192",0
"2193",7.92983445052631e-06
"2194",0.61215671694846
"2195",0.269922933109663
"2196",0.840702006202497
"2197",0.0770402973968208
"2198",0.0710602808219466
"2199",0.00720828305980104
"2200",0.124721494332235
"2201",2.68585154117318e-11
"2202",0.000302723188820186
"2203",0
"2204",0.00770072345534312
"2205",6.87028073381724e-05
"2206",0.6470580700945
"2207",1.42000855518631e-11
"2208",0.0138955439979476
"2209",0.940906421152275
"2210",0.191817491833595
"2211",0
"2212",0.00599595660734475
"2213",0
"2214",0
"2215",0
"2216",0.00226062281161066
"2217",0.00039267905947904
"2218",0.131081464157589
"2219",0.0123324024155285
"2220",0.739175280705567
"2221",0.00599719866618198
"2222",0.737589936504922
"2223",0
"2224",0.106709095142448
"2225",2.90076054965116e-06
"2226",0.908362513242682
"2227",0.0515006385136371
"2228",0.0138018335610327
"2229",0.176615879429008
"2230",0.00618822483474701
"2231",1.48444569192385e-07
"2232",0.00213184887774931
"2233",0.0120455060875805
"2234",0.000563157372684753
"2235",0.0116896272701937
"2236",0.000181085595935437
"2237",3.80130497983355e-05
"2238",0.0503868261204284
"2239",0.0263856630634665
"2240",1.86581061234481e-06
"2241",5.73265068837259e-06
"2242",0.00161744871329439
"2243",4.14273117221864e-06
"2244",0
"2245",0.0481322380717975
"2246",0
"2247",0
"2248",0.000301796870395776
"2249",0.417723302430168
"2250",0.0813013795775355
"2251",0.0147151638807583
"2252",0.291075001069871
"2253",0.00217712898286493
"2254",0.00345884920525741
"2255",0.243447963047075
"2256",0.0148304387349532
"2257",5.78537218132169e-13
"2258",0.151298804321561
"2259",0.0147793491921886
"2260",0
"2261",0.001274712550833
"2262",2.71194602743385e-05
"2263",0.00267421297591652
"2264",0.116706944420564
"2265",0.00712270303961049
"2266",7.4815081976376e-05
"2267",7.65523850457805e-05
"2268",0
"2269",0
"2270",0.134411696669122
"2271",0.0442814160314929
"2272",0.583678030252646
"2273",0.0291199522430732
"2274",0
"2275",0.101688041361602
"2276",0.00218398282129284
"2277",0.223558621436532
"2278",0.00259520399222868
"2279",2.94924241583949e-07
"2280",0.0310137830588429
"2281",0
"2282",0
"2283",0
"2284",0
"2285",0.0750167167480895
"2286",0
"2287",0.38952435116757
"2288",0.0621954371082188
"2289",5.55111512312578e-16
"2290",0.206080129230889
"2291",0.00654501917532069
"2292",2.70764144438829e-09
"2293",0
"2294",0
"2295",0
"2296",0.0036064223909148
"2297",0.49560924174047
"2298",1.08690834110803e-13
"2299",0
"2300",0
"2301",1.11022302462516e-16
"2302",0
"2303",0
"2304",1.11022302462516e-16
"2305",0
"2306",0
"2307",0.018992338569819
"2308",0.812372103968745
"2309",0.00435263545113973
"2310",0
"2311",0
"2312",0
"2313",0
"2314",0
"2315",0.00448980051475878
"2316",0
"2317",0
"2318",0
"2319",0
"2320",0
"2321",0.00451359930340289
"2322",0
"2323",0
"2324",0
"2325",0
"2326",1.39142367627798e-07
"2327",0
"2328",0
"2329",0.00461931404606919
"2330",0
"2331",0.0699745443105343
"2332",0.0369768485460025
"2333",9.56259516016189e-11
"2334",0
"2335",0
"2336",0
"2337",0.000564086357085047
"2338",0.00243620411813994
"2339",0.0351794842575148
"2340",0.00057902685027289
"2341",0.0934592916976257
"2342",0
"2343",0
"2344",0
"2345",0.00805266025156037
"2346",0
"2347",0
"2348",0
"2349",0
"2350",0
"2351",0.00109308470861136
"2352",0
"2353",0
"2354",0
"2355",0
"2356",3.35366518909863e-05
"2357",0
"2358",3.04882008528296e-10
"2359",0.868984142444727
"2360",0.00424445292435871
"2361",0
"2362",1.18472158128213e-06
"2363",0
"2364",2.71016542541247e-12
"2365",3.68904784497914e-09
"2366",1.84500931199594e-08
"2367",3.06456433107893e-06
"2368",0.00940268205396388
"2369",0.0321539532832019
"2370",0
"2371",1.84565083518606e-05
"2372",0.0304267753524807
"2373",2.63556973743029e-05
"2374",0.309359566840172
"2375",0.0189562583090512
"2376",2.15895437183367e-06
"2377",0.000115727053010883
"2378",0.00412021330041579
"2379",0.00305507642558633
"2380",0.0811057462480256
"2381",1.67880034207535e-07
"2382",0.0406018520374416
"2383",6.12683557665861e-07
"2384",0
"2385",0
"2386",0.626525902637671
"2387",0.240176351002302
"2388",0.00170944203469003
"2389",0.00242114764275148
"2390",0.0539498000081347
"2391",0
"2392",0.00893841928220951
"2393",0
"2394",0
"2395",0
"2396",2.57828589589337e-08
"2397",0.381422960776528
"2398",0.108619511070704
"2399",0.799447611421986
"2400",0.014855558185925
"2401",0.0608664796160101
"2402",0.218846246997191
"2403",0.342713762796207
"2404",0
"2405",0.410859876809958
"2406",1.66427574055383e-07
"2407",5.3090618630125e-05
"2408",0.833796826635493
"2409",8.1052739175913e-07
"2410",0.0101564581729118
"2411",0.732593290053513
"2412",0.0324060248368435
"2413",0.523928945729065
"2414",0.0139697451400456
"2415",0
"2416",3.31084027100914e-05
"2417",3.66170245813535e-06
"2418",0.819756608853017
"2419",0.812579038550464
"2420",0
"2421",0.00985114024975997
"2422",4.09425240266437e-07
"2423",2.82064413502647e-05
"2424",0.118379820621811
"2425",0.0223299828076202
"2426",0.440409658247772
"2427",1.68757230412098e-11
"2428",0.00160000015111017
"2429",0.00730498469360064
"2430",0.157721677113525
"2431",0.299799226053415
"2432",0.166998168137799
"2433",0
"2434",0
"2435",0.000157410942452474
"2436",1.61476508608871e-06
"2437",7.17400939305168e-05
"2438",0.00413625666670625
"2439",0.00171674573385383
"2440",1.49076387844227e-05
"2441",2.98122345956386e-05
"2442",0.0645609931737821
"2443",0
"2444",1.4432899320127e-15
"2445",0
"2446",0
"2447",0.383158895318384
"2448",0.0482468926531002
"2449",0.41249396022758
"2450",0
"2451",0.9208538625433
"2452",0.445462118298071
"2453",0.00177672234438253
"2454",1.37919675680109e-11
"2455",0.0585643113926022
"2456",0.325235919986075
"2457",0.909409451884125
"2458",0
"2459",0
"2460",0.401306238612889
"2461",0.00190662096622285
"2462",0.654650659359355
"2463",0
"2464",0
"2465",0.00252513322478842
"2466",0.890179913971403
"2467",0.755175630758609
"2468",0.98097897368251
"2469",0.00359784466239832
"2470",0
"2471",0.344011763459315
"2472",0.615112333827975
"2473",0.0720907789770902
"2474",0.659732387441814
"2475",0.467179299856902
"2476",0.0811670982736957
"2477",0.554199758442072
"2478",0.000277252626036062
"2479",0.357823181830472
"2480",0.0119661132512998
"2481",0.0738009178530064
"2482",0.380973869782667
"2483",0.296051780818235
"2484",0
"2485",0.312072463064791
"2486",0.0347167228457964
"2487",0.20145779062796
"2488",0.648057336915148
"2489",0.340565265108443
"2490",0.256050919308675
"2491",0.0151430589404163
"2492",0.265280442078556
"2493",0.0517536380776141
"2494",0.197793530011214
"2495",0.118925756987954
"2496",0
"2497",0.13994806584507
"2498",0.132164767816522
"2499",0.606296964944602
"2500",0.402822057623522
"2501",0.131529223259113
"2502",0.10904554293081
"2503",0.0787337690242714
"2504",0.759377012948264
"2505",0.464267310006831
"2506",0.256316540826003
"2507",0.00582480965495402
"2508",0.2074795201333
"2509",0
"2510",0.286331253619846
"2511",0.174517344930077
"2512",0.0211782161554108
"2513",0.00940507225434428
"2514",0.255255732679716
"2515",0.976228361056085
"2516",0
"2517",0.00563254136099367
"2518",0.28981741102182
"2519",0.0131042751023119
"2520",0.560704791906794
"2521",0.839116331843863
"2522",0
"2523",0.105566757321085
"2524",0.000923394322846383
"2525",0
"2526",0.00167013259970417
"2527",0.195999182213073
"2528",0.401540904661566
"2529",0.267252763537143
"2530",0.379025751623607
"2531",0.150659141311964
"2532",0.0176309443338371
"2533",0.0345649103886152
"2534",0
"2535",7.32672811309953e-11
"2536",0
"2537",2.82067887935611e-07
"2538",0.0094718829823659
"2539",0.151274147374271
"2540",0
"2541",0.120481528747836
"2542",0.0201592283713831
"2543",0.0744184480743619
"2544",0.000964372115281775
"2545",0.0715782484417055
"2546",0.000463793912949595
"2547",0.00682540109084184
"2548",0.367503259067648
"2549",0.423626969532258
"2550",0.0143571631045294
"2551",0.227749820229544
"2552",0.0838104966661578
"2553",0.0101087962933817
"2554",0.3818806608803
"2555",0.132074540483895
"2556",0.183225994573432
"2557",0.367910238567293
"2558",3.3640423779957e-11
"2559",0.0585060984706933
"2560",0.00513953968217795
"2561",0.0231843823717606
"2562",1.15071296811209e-05
"2563",6.32827124036339e-15
"2564",0.110852254260111
"2565",0.913208324692049
"2566",0.0686714258197292
"2567",0.0361411772627298
"2568",0.125106407883322
"2569",0.114185603348953
"2570",0.193404328155873
"2571",0.198374753843821
"2572",0.0110378512478435
"2573",0.426796151438891
"2574",0.315455674222927
"2575",0.603157030624884
"2576",0.0259508541484882
"2577",0.0015377235843439
"2578",0.130128231503505
"2579",1.87524508921122e-07
"2580",0
"2581",1.60406521398926e-09
"2582",0.9300424653994
"2583",0.927597264685288
"2584",0.274803832883598
"2585",0.423034233454778
"2586",0.0452873049674061
"2587",0.0110015623437276
"2588",0.495715312880211
"2589",0.00752509711528326
"2590",0.0122317514259235
"2591",1.11022302462516e-15
"2592",0.0314647832512945
"2593",0.00503885023192852
"2594",0.490846885653422
"2595",0.498859711757971
"2596",0.000943247113530221
"2597",0.0333520368353812
"2598",0.216205718922822
"2599",0.00306575627571004
"2600",0.879315252751657
"2601",0
"2602",0
"2603",0.00148362946898162
"2604",0.00228425398971333
"2605",0.4782734642323
"2606",0.28573351681732
"2607",0.0246287055690454
"2608",0.238248817934013
"2609",0.00109403622714876
"2610",0.43590431268747
"2611",0
"2612",0.701597898608796
"2613",0
"2614",0
"2615",0.0168716229683935
"2616",0.00280702865580373
"2617",0.691271354040463
"2618",3.90146625027787e-05
"2619",0.700185309570887
"2620",0.00890214006601386
"2621",0.243231617060729
"2622",0.379021136409492
"2623",0
"2624",0
"2625",0
"2626",0.0225573693562326
"2627",0.000166394614047105
"2628",0.0630768894850052
"2629",3.83589695562847e-08
"2630",0
"2631",0
"2632",0.00217117598608951
"2633",0
"2634",0
"2635",0
"2636",0
"2637",0.0162439215912602
"2638",6.76785864017759e-08
"2639",0
"2640",0
"2641",0.00061241003218826
"2642",3.64955576759307e-07
"2643",1.7996705662382e-06
"2644",0
"2645",2.5157202987458e-09
"2646",0.724502112670647
"2647",0
"2648",6.2364281418259e-05
"2649",0
"2650",0
"2651",0.133879774931462
"2652",0
"2653",0
"2654",0
"2655",0.00986327795445108
"2656",0
"2657",0
"2658",0.000639861530254526
"2659",0
"2660",0
"2661",1.83002168974156e-10
"2662",4.61456295397511e-09
"2663",0
"2664",0.000568482546620674
"2665",0
"2666",0
"2667",0
"2668",0.526495289520831
"2669",0
"2670",1.14966657394078e-06
"2671",3.36397576461422e-14
"2672",0
"2673",0
"2674",0.314629287147437
"2675",0
"2676",0
"2677",1.37421582374619e-05
"2678",0.123599167033463
"2679",0.0920696381863795
"2680",0
"2681",0.020155293499471
"2682",0
"2683",0
"2684",0.367788365112631
"2685",4.64368227603984e-06
"2686",0.00432078562081006
"2687",0.000180168173306239
"2688",0.628936183473282
"2689",0.0125068512619749
"2690",0
"2691",0.0202090391143238
"2692",1.30036219793128e-05
"2693",0
"2694",0
"2695",0
"2696",1.16854637077779e-09
"2697",0
"2698",0
"2699",0
"2700",0
"2701",0
"2702",0.436110317862561
"2703",0.634450367087181
"2704",0.760606514318429
"2705",0
"2706",0
"2707",0.164778101760613
"2708",0.0016177591738803
"2709",0.0338912655394568
"2710",0.0212462354462168
"2711",0.00692125298384116
"2712",0.00378705353166975
"2713",0
"2714",0.0402636441298839
"2715",0
"2716",0
"2717",0.000118244973059012
"2718",3.62350258288346e-05
"2719",0.0765392088351722
"2720",4.21498058678083e-10
"2721",6.55093428941766e-05
"2722",0.0921555351607197
"2723",1.23814140203793e-05
"2724",0.165397752903592
"2725",0
"2726",0
"2727",0
"2728",0
"2729",0
"2730",0.178597917109216
"2731",0
"2732",0.097549024304357
"2733",0.000312694959938575
"2734",3.34085365347736e-05
"2735",0.544207931538371
"2736",0.0099710285646063
"2737",0
"2738",0
"2739",0
"2740",0.0135612732017328
"2741",9.90965260205812e-06
"2742",0
"2743",0.000782915014491015
"2744",4.2673079117761e-05
"2745",0.0623670982438254
"2746",0.0155637219039491
"2747",0.00860252549187146
"2748",0.00902893110428837
"2749",4.34961611173179e-09
"2750",0
"2751",0
"2752",0.0726407227536876
"2753",0.386050880804531
"2754",0.0245465819269272
"2755",1.460516596552e-09
"2756",0.00762192726626287
"2757",0.00446931001228834
"2758",0.17157098842
"2759",0.874079373591003
"2760",0.340075476170512
"2761",0.110323860319263
"2762",9.6007646277485e-12
"2763",0.000844523097651151
"2764",0.00528084521831629
"2765",0.145956233888615
"2766",0.00033556474370211
"2767",0.00232827328360075
"2768",0
"2769",0
"2770",0.566751605673092
"2771",0.0250456414162679
"2772",0.000729128003783108
"2773",0
"2774",0.000899320008872162
"2775",0.0780022902326253
"2776",0.00620712982766269
"2777",1.55526695855279e-07
"2778",0
"2779",0.251852398997639
"2780",0
"2781",1.11022302462516e-16
"2782",7.86694033361179e-06
"2783",0.00318596725771469
"2784",6.4542370115106e-08
"2785",0.0536289487024042
"2786",0.0148019333868051
"2787",0.0306276534951261
"2788",0.176344811723865
"2789",3.53054556923027e-07
"2790",0.707189522541164
"2791",8.95727936267576e-13
"2792",1.64313007644523e-14
"2793",0.246147259248253
"2794",0.239775346645141
"2795",0.000159632604104454
"2796",0
"2797",0
"2798",0.0224552089702476
"2799",0
"2800",0.24952605189575
"2801",0.284770259871562
"2802",0.258698431015355
"2803",0
"2804",0.197363855819028
"2805",0
"2806",0
"2807",0.0761651978071298
"2808",0
"2809",5.72542013799193e-13
"2810",7.92046872533092e-10
"2811",4.68182926094407e-07
"2812",2.26892715193827e-06
"2813",0.770452660658288
"2814",0
"2815",2.30601971549227e-05
"2816",2.69971855981765e-09
"2817",0.780609268089949
"2818",0.10340598726248
"2819",0.0829149135345093
"2820",0
"2821",1.3748642224698e-09
"2822",0.119828380126488
"2823",0
"2824",0
"2825",0
"2826",0
"2827",0.000122630126983436
"2828",0
"2829",0
"2830",0
"2831",0
"2832",0
"2833",8.79091902239448e-06
"2834",1.00523167567701e-09
"2835",3.80591613317049e-05
"2836",0.047756503057113
"2837",0
"2838",0
"2839",0
"2840",2.06257555479539e-09
"2841",0
"2842",0
"2843",2.87930790321411e-11
"2844",0.0903228350904208
"2845",0.0941720871271199
"2846",0.241425965117068
"2847",0.200855213263371
"2848",0.000109523463279526
"2849",0
"2850",0
"2851",0.0158886177148473
"2852",0.000378321423408434
"2853",0
"2854",0.407893322153819
"2855",0.000854892155433662
"2856",1.11145326275874e-09
"2857",0.738924654832946
"2858",0
"2859",0
"2860",0.0729308294724439
"2861",0.100063797841175
"2862",0.064158787930062
"2863",0
"2864",0.000410115199752092
"2865",0
"2866",1.54427581833261e-11
"2867",0.00120134287897433
"2868",0
"2869",0
"2870",0
"2871",0
"2872",5.55111512312578e-16
"2873",0.000296077412729634
"2874",0
"2875",0
"2876",0
"2877",0.31709026350859
"2878",0.00118346139559944
"2879",0.318346387530717
"2880",0.41615720839138
"2881",0.211371755962192
"2882",0
"2883",0
"2884",0
"2885",0
"2886",0
"2887",3.26194570021698e-07
"2888",1.07402853433136e-06
"2889",3.57158747021913e-13
"2890",0.155015029948054
"2891",0.0248326775327793
"2892",0
"2893",2.25262426936101e-05
"2894",0.218586061898442
"2895",0.261749468450892
"2896",0.0228705906909945
"2897",0.744352463363437
"2898",0.21049370937763
"2899",0.292935564171005
"2900",0.640630197325647
"2901",0.0205218045196716
"2902",0.0473097231553146
"2903",0.000311756732284563
"2904",0.106797220053839
"2905",0.00313097213286984
"2906",0.00329766522722486
"2907",0.0227518580365396
"2908",0.00636993333867064
"2909",0.319534364897992
"2910",0.000656740912694964
"2911",0
"2912",0
"2913",0.00362996251548942
"2914",0.257103250574257
"2915",0.265994195032083
"2916",0.0541946585826286
"2917",6.46200073872727e-06
"2918",0.739187616057266
"2919",0.114719364854963
"2920",0.266837452096205
"2921",3.45279360658424e-14
"2922",0.000393214806116426
"2923",0.152316438173612
"2924",0.000785442813911574
"2925",0.403355160366579
"2926",0.146600778287957
"2927",0.238734160638974
"2928",0.199744757394611
"2929",0.255965931164512
"2930",0
"2931",0.182415447294485
"2932",0.0151436844393025
"2933",0.0366864641833191
"2934",0.132800754024552
"2935",1.34781785077198e-06
"2936",3.33066907387547e-15
"2937",0.000883508816729384
"2938",0.000936047407245177
"2939",0.0337843078412601
"2940",1.70508806629499e-07
"2941",1.800781745942e-13
"2942",0.129052348585073
"2943",7.27378712817028e-10
"2944",1.25891210900342e-07
"2945",8.28159649746141e-07
"2946",0.0100930265770209
"2947",1.23105037275195e-09
"2948",0.61854542203552
"2949",5.55111512312578e-16
"2950",9.63727415093096e-07
"2951",0.0927631818105993
"2952",6.52653480317511e-05
"2953",0
"2954",0
"2955",0.022060178475704
"2956",0.127824149424963
"2957",0
"2958",2.08040357196904e-06
"2959",0
"2960",0.926722073134666
"2961",0.632951705419932
"2962",6.70016084924896e-06
"2963",3.78604814166295e-10
"2964",0.141804723797185
"2965",0.531669370424562
"2966",1.74805322994409e-07
"2967",8.80474523082819e-05
"2968",0.193200350371753
"2969",0.0817015097210394
"2970",0.549525006738328
"2971",0.905461265354882
"2972",0.0705598062116615
"2973",0.138099895208051
"2974",5.02359440985867e-05
"2975",0.0308922492345697
"2976",0.0318598907236144
"2977",4.71677286117966e-08
"2978",0.0201517080506325
"2979",0.00247730893882192
"2980",9.82053882658818e-10
"2981",0.000281129334587238
"2982",0.00506610320477752
"2983",2.64491761825525e-11
"2984",0
"2985",0.0357174593405587
"2986",0.144175371372826
"2987",0.979053842921744
"2988",0.529466182175218
"2989",0.942574640144488
"2990",0.00523605007033712
"2991",0.534838490126411
"2992",0
"2993",0
"2994",0.115942167028076
"2995",5.27175789355461e-07
"2996",1.11022302462516e-16
"2997",0.000663602668722452
"2998",0.00277202744599547
"2999",0.291765415406697
"3000",0.00173941410944722
"3001",0
"3002",0.000317593291698781
"3003",0.105938300006298
"3004",0.462239974109673
"3005",0.004175109933516
"3006",0
"3007",4.3328673982046e-12
"3008",0.15295526569851
"3009",0.0105527570077055
"3010",0
"3011",0.0302739184802064
"3012",0.000160603182890018
"3013",0
"3014",0.371029491989089
"3015",0.568782743075479
"3016",0.0231822605658868
"3017",0.00685715785431773
"3018",0.0583224788384236
"3019",0.00164249831609076
"3020",0.0273720879426859
"3021",0.46390472580696
"3022",0.48963592189635
"3023",0.210970005281249
"3024",0.891116185598478
"3025",0
"3026",4.94629311953432e-08
"3027",3.68099799096244e-05
"3028",0.00139037516553442
"3029",0.000113449963424994
"3030",0.110153670391054
"3031",0.577761012909377
"3032",1.30180377766465e-06
"3033",4.49207337993585e-12
"3034",0
"3035",0
"3036",5.55149259895416e-11
"3037",0
"3038",0
"3039",0
"3040",2.61334842655003e-10
"3041",4.80131786010363e-05
"3042",0.0121124690310316
"3043",0.00509424385723944
"3044",0
"3045",0
"3046",0.000348179018487826
"3047",9.56340058366756e-07
"3048",0.00347506145617349
"3049",0.15722556773224
"3050",0.000166974020817334
"3051",3.24753235414477e-09
"3052",0.171354538536742
"3053",0.0723380762015
"3054",0.146200040253454
"3055",0.0509840384919403
"3056",1.33948407921025e-12
"3057",3.11199802593976e-07
"3058",0.449277383368
"3059",0.813326304981652
"3060",5.74096326033668e-13
"3061",2.72681479618342e-08
"3062",0
"3063",0.102263652854109
"3064",3.64678403530494e-06
"3065",5.89369997250344e-10
"3066",0.000558137566511241
"3067",3.14419268399035e-10
"3068",0
"3069",0.00571082983062787
"3070",0.360270128327491
"3071",0.00404931815739951
"3072",0.0724896119085389
"3073",0.352017435420251
"3074",0.15628837098511
"3075",1.18124332204594e-06
"3076",0.00328197115473561
"3077",3.28376962066557e-07
"3078",0
"3079",0.00242421985503349
"3080",0
"3081",0
"3082",3.09245075102993e-07
"3083",0.187305156633479
"3084",2.02060590481778e-14
"3085",7.53159370203704e-07
"3086",0.0117340270225703
"3087",0
"3088",0
"3089",0
"3090",0
"3091",0
"3092",0
"3093",0
"3094",0
"3095",0
"3096",0
"3097",0
"3098",0
"3099",0
"3100",4.18739636298682e-08
"3101",0
"3102",0
"3103",0
"3104",0
"3105",0
"3106",0
"3107",6.42685571428103e-10
"3108",0
"3109",0
"3110",0
"3111",4.12114089631821e-06
"3112",7.36911243137683e-09
"3113",0
"3114",0
"3115",0
"3116",0
"3117",0
"3118",0
"3119",0
"3120",0.0116078545993811
"3121",0.0179920085611178
"3122",9.12603326241879e-13
"3123",0
"3124",0
"3125",0.307231355836238
"3126",0.229610342225798
"3127",0.159541407218441
"3128",0
"3129",0
"3130",0
"3131",0
"3132",0
"3133",0
"3134",0
"3135",0
"3136",8.88178419700125e-16
"3137",0.000383730365273394
"3138",0.34837289679372
"3139",0.0322623304802826
"3140",7.88506358223584e-05
"3141",0.0158474026783042
"3142",0.490621884016413
"3143",0.000186348875292452
"3144",4.45904638136652e-05
"3145",0.00720251224188317
"3146",0.0993218780776911
"3147",0.824852373411603
"3148",0.00962207976682239
"3149",0.0215736039040559
"3150",0.0408899109204582
"3151",0.881307867627727
"3152",0.000977995911446095
"3153",0.000253056595496681
"3154",0.555318248714744
"3155",0.238627097412938
"3156",0.440240709705679
"3157",0.173274741783038
"3158",0.821361287540121
"3159",0.553352911784992
"3160",0.333843431481259
"3161",0.37946839961611
"3162",0.635916523574544
"3163",0.391440931159065
"3164",0.00465438304362675
"3165",0
"3166",0
"3167",0.000859644105366542
"3168",0.289995871644876
"3169",0.792421598424498
"3170",0.0288585687090611
"3171",0.0265025161092705
"3172",0.0179987200118357
"3173",1.15530139788156e-07
"3174",0.392758756492478
"3175",0.911556028254133
"3176",0.123033757034645
"3177",0.00957587911937552
"3178",0.11597773088782
"3179",0.892765216911511
"3180",0.323987321504153
"3181",0.0118666922883396
"3182",0.748140017636879
"3183",0.348633654096509
"3184",0.18748223170911
"3185",0.0265806640676133
"3186",0
"3187",0
"3188",0.536121362011376
"3189",0.281307431470081
"3190",1.32654998097337e-10
"3191",0
"3192",0.000886065631540922
"3193",0.00081002983718248
"3194",0.184560292222846
"3195",0
"3196",0
"3197",0.25168692153289
"3198",0
"3199",0.014440307438748
"3200",0
"3201",0
"3202",2.22044604925031e-16
"3203",0
"3204",0
"3205",0
"3206",0
"3207",1.11022302462516e-16
"3208",1.31363808719698e-11
"3209",0.887691815537017
"3210",0.799424386585482
"3211",0.601486057472868
"3212",4.44089209850063e-16
"3213",0.650575326790345
"3214",0.0489756162970069
"3215",0.00481288268291813
"3216",2.14698178191419e-06
"3217",5.58431968422646e-06
"3218",0.113017201763172
"3219",0
"3220",0
"3221",0.000173292974089079
"3222",0
"3223",0
"3224",0.00153812326289393
"3225",6.32436336633901e-09
"3226",0
"3227",0.0165708805494675
"3228",0.0586466466142677
"3229",0.0235158062640902
"3230",0.00305266225398704
"3231",0
"3232",0.288190379911696
"3233",0.604074934818254
"3234",0.555947907040625
"3235",0.909968858062483
"3236",0.00458770933109109
"3237",0.466000876314835
"3238",0.909339026100131
"3239",0.886179084251367
"3240",2.01497160010611e-05
"3241",0.437521961926436
"3242",3.11269464285946e-05
"3243",0.63713553778568
"3244",0.00133639056698831
"3245",0.997345752251968
"3246",0.661816067543848
"3247",0.851706313846193
"3248",0.221235495939476
"3249",2.17455942141953e-10
"3250",0
"3251",0
"3252",3.20343751525343e-12
"3253",0
"3254",0.026151150585602
"3255",0.980229123902789
"3256",0.146337100864341
"3257",0.919507935707436
"3258",0.00135888390509964
"3259",0
"3260",2.0054624627619e-11
"3261",0
"3262",0.806496241798714
"3263",0.0269050125783948
"3264",2.57281017068678e-06
"3265",5.89104968140575e-08
"3266",1.3965194993637e-05
"3267",0.0373935160891851
"3268",0.716804111378834
"3269",0.156204196103822
"3270",0
"3271",5.55111512312578e-16
"3272",0
"3273",0
"3274",0
"3275",0
"3276",0.0038582653098207
"3277",8.26075869930776e-08
"3278",0.0866776402309426
"3279",0.000595250012816129
"3280",0.357984713021052
"3281",0
"3282",0
"3283",0.409051737638543
"3284",0.377036852514419
"3285",0.154478460788641
"3286",0.274465113559266
"3287",4.70945002994938e-08
"3288",0.983984696779502
"3289",0.479752531740769
"3290",0.000114399632268558
"3291",0
"3292",0.00721923810798586
"3293",0
"3294",0
"3295",0
"3296",0
"3297",0
"3298",0
"3299",0.00163833243029987
"3300",0.491426711077632
"3301",6.43728246485509e-07
"3302",2.48713716288762e-09
"3303",0
"3304",0.359498546918383
"3305",0.000249047934745228
"3306",0
"3307",0
"3308",0
"3309",0
"3310",0
"3311",0
"3312",0
"3313",0
"3314",0
"3315",0
"3316",0
"3317",0
"3318",0
"3319",0
"3320",0
"3321",0
"3322",0
"3323",0
"3324",6.66133814775094e-16
"3325",0.000327457520703622
"3326",0
"3327",0.0577604037311736
"3328",0.133992100274996
"3329",1.71488041511569e-06
"3330",0.0129339235343758
"3331",0.0586230720366883
"3332",0.0655383266719363
"3333",4.28466668791483e-05
"3334",0
"3335",0
"3336",2.25486296301369e-12
"3337",0
"3338",0
"3339",0
"3340",0
"3341",0
"3342",0
"3343",0
"3344",0
"3345",0
"3346",0
"3347",0
"3348",0
"3349",0
"3350",2.18710132227073e-08
"3351",0
"3352",5.47517586824142e-12
"3353",0.00293432606947697
"3354",0
"3355",0
"3356",0.035017637336368
"3357",0.0020096576668116
"3358",0.818088852699583
"3359",6.26165785888588e-13
"3360",0.668772429438823
"3361",0.462766998649605
"3362",0.00127695356137403
"3363",3.37711636655413e-07
"3364",0.708166802716676
"3365",3.32304961325747e-10
"3366",1.03302078002798e-08
"3367",0.645879434502739
"3368",0.222991781589842
"3369",1.1522587402446e-05
"3370",9.36306611132309e-08
"3371",0.583946128728323
"3372",0.320199955746806
"3373",0.155336534372124
"3374",0
"3375",0.0757005742265439
"3376",2.20934381900406e-14
"3377",1.52530042697441e-05
"3378",0
"3379",0.404463604120273
"3380",1.83043802337579e-10
"3381",8.88178419700125e-16
"3382",0.0409938134316921
"3383",0.00300462838045146
"3384",0.314061877654207
"3385",0
"3386",7.43849426498855e-15
"3387",0.51960258944562
"3388",0.103395196955589
"3389",0.11276263087323
"3390",0.892125996509853
"3391",0.914383771140595
"3392",0.0677066209026417
"3393",0.576766355105613
"3394",0.0166228973724819
"3395",0.00393503735895118
"3396",1.88737914186277e-15
"3397",0.00462520371289743
"3398",0.0090978636792981
"3399",0.350440706045724
"3400",2.44162468021614e-11
"3401",0.00192909419532139
"3402",0
"3403",0.312695305768339
"3404",0.0553944549562136
"3405",0.00185402981051208
"3406",0.307180821605218
"3407",0
"3408",8.96322798322746e-05
"3409",0.737833225653021
"3410",0.126286304390882
"3411",1.52775592177079e-09
"3412",0.438828708434337
"3413",3.1094356156558e-07
"3414",2.04338768128309e-11
"3415",0.286030506914677
"3416",0.929364022558972
"3417",0.0474041174961514
"3418",5.55111512312578e-16
"3419",0.0301000133975188
"3420",0.00421458278220321
"3421",0.00332025117908552
"3422",0.00629597027410145
"3423",0.312273625452595
"3424",2.58456048229938e-07
"3425",4.86493182005887e-06
"3426",0.0734049257474376
"3427",0.825809139767149
"3428",0.499307845261668
"3429",0.00646319378404414
"3430",0.261174244400949
"3431",0.487207760086816
"3432",0.262061407916665
"3433",0.578109868361304
"3434",0.0223020448024102
"3435",0.275563704270735
"3436",0.577541832700642
"3437",0.569022885173985
"3438",0.202293203823763
"3439",0.0120963693171308
"3440",0.246646621529806
"3441",0
"3442",0.447787683760684
"3443",0
"3444",3.1316838011719e-11
"3445",0.304223277536434
"3446",0.000625442155963385
"3447",0
"3448",0.000106591872305883
"3449",0.0403291608795872
"3450",0.842447200452498
"3451",0.0527789563512386
"3452",5.70269709232463e-09
"3453",0.0567049514760737
"3454",0
"3455",2.2405737586384e-05
"3456",0
"3457",3.94717591944982e-12
"3458",2.22094828083996e-08
"3459",6.90003609804535e-11
"3460",0
"3461",0.00036331949285251
"3462",0
"3463",5.81710158931159e-08
"3464",5.46440666937542e-07
"3465",0
"3466",0
"3467",0.00297226355394364
"3468",0.177950571096814
"3469",0.322372416091445
"3470",0.0141734389298428
"3471",1.11022302462516e-16
"3472",0
"3473",0
"3474",0
"3475",0
"3476",1.34048060558278e-05
"3477",2.55974130780601e-11
"3478",0
"3479",0
"3480",0
"3481",0
"3482",0
"3483",0
"3484",5.00501085021199e-10
"3485",0
"3486",0
"3487",0
"3488",0
"3489",0
"3490",0
"3491",0
"3492",0
"3493",0
"3494",0
"3495",0
"3496",0
"3497",0
"3498",0
"3499",0
"3500",0
"3501",0
"3502",0
"3503",0
"3504",0
"3505",0
"3506",0
"3507",0
"3508",0
"3509",0
"3510",0
"3511",0
"3512",0
"3513",0.000673977083456401
"3514",0
"3515",0
"3516",0
"3517",0
"3518",0
"3519",0
"3520",0
"3521",0.046812608452301
"3522",0
"3523",0
"3524",0
"3525",0
"3526",0.256063048116029
"3527",0
"3528",0
"3529",0.591384291661954
"3530",5.25123167172126e-09
"3531",0
"3532",0
"3533",7.3057171423585e-09
"3534",0
"3535",0
"3536",0
"3537",0
"3538",5.73985303731206e-14
"3539",0.270733432098922
"3540",0
"3541",0
"3542",0
"3543",0
"3544",0
"3545",0
"3546",0
"3547",0
"3548",0.396256410364565
"3549",0
"3550",0.0164767862235782
"3551",0
"3552",0
"3553",0
"3554",0
"3555",0
"3556",0
"3557",0
"3558",0.16694495783662
"3559",0
"3560",0
"3561",0
"3562",5.10702591327572e-13
"3563",0
"3564",0
"3565",0
"3566",0
"3567",0
"3568",0
"3569",0.0773067626486896
"3570",0
"3571",0
"3572",0
"3573",7.1276318180935e-14
"3574",0
"3575",0
"3576",0
"3577",0
"3578",1.09865475605986e-08
"3579",0
"3580",0
"3581",0
"3582",0
"3583",0
"3584",0
"3585",0
"3586",0.00359892628705116
"3587",0
"3588",0
"3589",0
"3590",0
"3591",0
"3592",1.11022302462516e-16
"3593",0
"3594",0
"3595",0
"3596",0
"3597",0.0171485284944285
"3598",0
"3599",3.88222176628261e-09
"3600",0
"3601",0
"3602",0
"3603",0
"3604",0
"3605",1.02027530868298e-09
"3606",0
"3607",0
"3608",0
"3609",0
"3610",0
"3611",0
"3612",0
"3613",4.90632690031134e-09
"3614",0
"3615",0
"3616",0
"3617",0
"3618",0
"3619",0
"3620",0
"3621",1.06225606599786e-06
"3622",0
"3623",0
