"","x"
"1",8.64818511816523e-05
"2",0
"3",3.28514254832601e-06
"4",1.96374413852229e-06
"5",0
"6",0
"7",0
"8",0
"9",0.00275591874331982
"10",0.0732891706160923
"11",5.34702551124866e-08
"12",0
"13",0
"14",0
"15",0
"16",0
"17",0
"18",0
"19",0
"20",0
"21",0
"22",0
"23",0
"24",0.00226474790213482
"25",0
"26",1.0325074129014e-14
"27",0.0410349063283786
"28",0.000253353707070025
"29",2.78697670827999e-05
"30",0
"31",0
"32",0
"33",0
"34",0.0116590593014795
"35",1.48579692327289e-07
"36",0.023586175977137
"37",0
"38",0
"39",0
"40",0
"41",8.61852795588369e-05
"42",0.00347336430484746
"43",0
"44",0
"45",0
"46",0
"47",0
"48",1.11022302462516e-16
"49",0
"50",0
"51",0
"52",0
"53",2.22044604925031e-16
"54",0.000901394666692923
"55",0
"56",0
"57",0.000267998467547881
"58",0
"59",0
"60",7.31847915602657e-11
"61",0.00181944650004962
"62",0
"63",0.793134030596431
"64",0.364571230400721
"65",0.282067729608313
"66",0.000719836332361612
"67",1.76745599822503e-07
"68",0.0195338863856787
"69",0.00456025617619038
"70",0.0045239558557798
"71",0
"72",4.49418280368263e-13
"73",3.08774106283494e-09
"74",0.844847398772193
"75",9.75945324555028e-10
"76",0
"77",0
"78",0
"79",0
"80",0
"81",1.78018710883521e-11
"82",0
"83",0
"84",0
"85",0
"86",0.364249955876378
"87",0.0184928945641956
"88",3.16013881729305e-12
"89",1.36235467351753e-12
"90",8.3499873682058e-13
"91",0
"92",0.000288687991590431
"93",3.53424875971786e-05
"94",0.00916241580342803
"95",0.562605590144531
"96",0.000383661039986882
"97",0
"98",3.19102424484186e-08
"99",0.00135598734266984
"100",0.0178350705150797
"101",0.62517643288499
"102",3.28950980343912e-07
"103",0.0331614531300589
"104",0.0335302329127226
"105",3.33533948732034e-05
"106",0.0126039909796744
"107",0.0617275679168723
"108",0
"109",0
"110",0
"111",0
"112",0
"113",1.55588875117019e-11
"114",1.64747224962181e-06
"115",0.00945291465803066
"116",0
"117",4.9960036108132e-15
"118",3.06842455888301e-08
"119",0
"120",9.08162434143378e-14
"121",0
"122",0
"123",0
"124",0
"125",1.01031687460562e-08
"126",0.000280110513410703
"127",0
"128",7.22563479271798e-07
"129",0.0106590747568805
"130",0.0707389203663501
"131",0.0787173308716111
"132",1.09669993975103e-06
"133",0.00450345213161396
"134",0.306107962686092
"135",0
"136",0
"137",3.18693796907965e-08
"138",0.00298277681113979
"139",0
"140",0.110169970806152
"141",0.0119842274209582
"142",0
"143",0
"144",0
"145",6.26125995939475e-07
"146",0
"147",0
"148",0
"149",0.106793118324493
"150",3.60700358470467e-12
"151",6.43929354282591e-15
"152",0.155233871360223
"153",0
"154",0.00011999481649283
"155",0
"156",0
"157",0.000375657979685751
"158",0.000149044935335518
"159",0.0175665506055724
"160",0.170547493236301
"161",7.28796809568166e-06
"162",6.34325925119583e-11
"163",0
"164",0
"165",3.73013508969677e-10
"166",7.07212066686225e-14
"167",0
"168",0
"169",0
"170",0.00217570083056429
"171",0.619641297272175
"172",0.00017445693648066
"173",0
"174",0.00709450211333218
"175",0
"176",1.38007970051923e-07
"177",9.25834393387115e-05
"178",0
"179",1.11022302462516e-16
"180",0.00553043009101517
"181",0
"182",0
"183",0
"184",0
"185",6.28663172708155e-06
"186",2.24567964779432e-07
"187",1.02106270216673e-07
"188",0.126018324058048
"189",0
"190",6.02827092732738e-06
"191",0
"192",0
"193",0
"194",6.2309380211012e-08
"195",4.71946925983957e-11
"196",0.000394054256825149
"197",2.15513162871162e-11
"198",0
"199",8.15839062973112e-09
"200",1.14251665079834e-05
"201",4.0425133089883e-06
"202",3.02045257583039e-07
"203",0.222576993968003
"204",0
"205",0
"206",0.064482229926987
"207",2.37118013224347e-06
"208",0
"209",4.15052583413456e-07
"210",0
"211",2.77555756156289e-15
"212",0
"213",0
"214",3.22828980769962e-07
"215",0
"216",0
"217",0
"218",0
"219",8.14836531581875e-10
"220",0
"221",0
"222",9.77094857912419e-07
"223",0
"224",0
"225",0
"226",1.55431223447522e-15
"227",1.42863498808765e-12
"228",0.0549834515597539
"229",0
"230",0
"231",0
"232",0
"233",0
"234",0
"235",0
"236",0
"237",3.07531777821168e-14
"238",0.00594290114382212
"239",0.000239129472039301
"240",0.0152126488391034
"241",0
"242",0.00628407117775964
"243",0.052994275851483
"244",0.342534803065962
"245",4.96380714309907e-13
"246",0
"247",0.726565649022319
"248",0.431037474094994
"249",0
"250",0
"251",0.000722782836170888
"252",0.00208950239454164
"253",0.263751811988288
"254",0.0256697272230177
"255",0.000284349300173736
"256",0
"257",0
"258",0.00154802866813153
"259",0.00723128204749057
"260",0
"261",3.18353984174458e-07
"262",3.75734386937054e-08
"263",0.0331603377519034
"264",0
"265",0
"266",1.88905571163467e-06
"267",2.09556771713082e-07
"268",0.00449803523706216
"269",0.371204603608032
"270",0.196751569407324
"271",1.11799458579753e-13
"272",0
"273",0
"274",2.48727298302054e-06
"275",5.06816810741384e-13
"276",0
"277",0
"278",0
"279",1.61205272227738e-05
"280",0
"281",3.8678490718036e-06
"282",0.306938672858625
"283",1.93449642971188e-08
"284",1.66533453693773e-14
"285",2.62207241016332e-05
"286",0
"287",4.34319247233361e-13
"288",0.00223213297263936
"289",0.0291012028690606
"290",1.79334325167702e-12
"291",0.000994208688429921
"292",0.0118425045565705
"293",0.000620421932651993
"294",0.000370580292525458
"295",0.0010289091023411
"296",1.11022302462516e-16
"297",0
"298",0
"299",0.00223473349870429
"300",0
"301",0
"302",1.93727138775301e-08
"303",0
"304",0.000414129045962719
"305",1.51697637673642e-07
"306",0
"307",1.49228983836736e-07
"308",0
"309",0
"310",0
"311",0
"312",0
"313",0.70191589975489
"314",0
"315",0
"316",3.66498731363407e-09
"317",0
"318",0
"319",0
"320",0
"321",0
"322",0
"323",0.0284500703811066
"324",0.330388133575823
"325",1.85073711800321e-07
"326",0
"327",2.24789292735394e-08
"328",0
"329",0
"330",0
"331",0
"332",0
"333",0
"334",0
"335",0
"336",0
"337",0
"338",0
"339",0
"340",0
"341",0
"342",0
"343",1.10814937226422e-08
"344",0
"345",0.131876455196176
"346",0.0304088752918402
"347",0.912897684488499
"348",0.0148825298801236
"349",0.000584847212584561
"350",0
"351",0.488705834329303
"352",1.94631673586798e-05
"353",0.000742273374773506
"354",0.0903178502136542
"355",0.201367284031492
"356",0.0117037254697593
"357",3.23847829307722e-05
"358",9.60171728425774e-06
"359",0.0298966787188462
"360",0.00109292278697404
"361",3.08111155356006e-06
"362",0
"363",9.37940836109874e-11
"364",0
"365",1.05805253081126e-06
"366",4.39494551496278e-06
"367",0.0250034090795074
"368",2.04424393523972e-07
"369",0.0001562277877869
"370",4.00826294377765e-09
"371",0.00705894252843564
"372",0.110173551536062
"373",3.23354565345824e-10
"374",1.58102544169925e-05
"375",0.0224553064472336
"376",0
"377",0
"378",0
"379",0.146455527207342
"380",0
"381",0
"382",1.43653637824093e-05
"383",0.214975464103935
"384",0.0361746080627563
"385",0.0124897592254821
"386",0.708625600581505
"387",0.172885566885734
"388",0
"389",0.184992838925488
"390",0.000680720844320692
"391",7.36267380396782e-10
"392",0
"393",0
"394",2.15716333684668e-13
"395",0
"396",0
"397",0.178285859746879
"398",0.0529398038172874
"399",1.26364113575139e-05
"400",0
"401",0
"402",0
"403",0
"404",1.49731338439096e-11
"405",2.72472044926531e-11
"406",5.51204925500759e-05
"407",0.00377604339347093
"408",0
"409",0
"410",0
"411",1.11022302462516e-16
"412",0.165166055280315
"413",0.044699344691009
"414",1.29896093881143e-14
"415",0
"416",0
"417",0
"418",0.00187564498853654
"419",0
"420",0
"421",1.47276857376255e-10
"422",0
"423",0
"424",0.108312789468196
"425",0
"426",0
"427",0
"428",0
"429",0
"430",0
"431",0
"432",0
"433",0.00410524311811378
"434",0
"435",0
"436",0
"437",0
"438",0
"439",0
"440",0
"441",0
"442",0
"443",0
"444",6.45179574987331e-06
"445",0
"446",0
"447",0
"448",0
"449",0
"450",0
"451",1.41896538963238e-08
"452",0
"453",0
"454",0
"455",1.68753899743024e-13
"456",0
"457",0
"458",0
"459",0
"460",0.0624853045831535
"461",0
"462",9.97357751941763e-11
"463",0.0354564914495565
"464",0.116477429997864
"465",0
"466",0.0360569077218419
"467",0.0607728214337335
"468",0
"469",0.0115317145493375
"470",0
"471",0
"472",0
"473",0
"474",0
"475",0
"476",0
"477",0
"478",0
"479",0
"480",0
"481",0
"482",0
"483",0
"484",0
"485",0
"486",0
"487",0
"488",0
"489",0.214007462635004
"490",6.88338275267597e-15
"491",0
"492",0
"493",0
"494",0
"495",0
"496",0
"497",1.20673847170405e-06
"498",0
"499",0
"500",0
"501",0
"502",0
"503",1.84156045968109e-09
"504",0
"505",0
"506",0.119300480607845
"507",0
"508",0
"509",0
"510",0
"511",0
"512",0
"513",0
"514",0
"515",0
"516",0
"517",0
"518",8.72635297355373e-14
"519",0.0356458889697051
"520",7.64193264224389e-10
"521",0
"522",0
"523",0
"524",0.0965950802271796
"525",0
"526",0
"527",0
"528",0
"529",0
"530",0
"531",0
"532",0
"533",0
"534",0
"535",0
"536",0
"537",0
"538",0
"539",0.115259997347711
"540",4.37739410467097e-05
"541",0
"542",0
"543",0
"544",0.0084455540386823
"545",5.35982631202359e-05
"546",0
"547",0
"548",0
"549",5.21853755619528e-06
"550",0
"551",0
"552",0
"553",0
"554",0
"555",0
"556",0
"557",0
"558",0
"559",0
"560",0
"561",0
"562",0
"563",0
"564",0
"565",0
"566",2.5113244817021e-13
"567",0
"568",0
"569",0
"570",0
"571",2.09632644576629e-10
"572",0
"573",0
"574",0
"575",0
"576",0
"577",0
"578",0
"579",0
"580",0.0104601626756043
"581",0
"582",0
"583",0
"584",0
"585",0
"586",0
"587",0
"588",0
"589",0
"590",0
"591",0
"592",0
"593",0
"594",0
"595",0
"596",0
"597",0
"598",0
"599",0
"600",0
"601",0
"602",0
"603",0
"604",0
"605",0
"606",0
"607",0
"608",0
"609",0
"610",0
"611",0
"612",0
"613",0
"614",0
"615",0
"616",0
"617",0
"618",0
"619",0
"620",0
"621",0
"622",0
"623",0
"624",0
"625",0
"626",0
"627",0
"628",0
"629",0
"630",0
"631",0
"632",0
"633",0.00307809201580311
"634",0
"635",0
"636",0
"637",0
"638",0
"639",1.22216792242114e-10
"640",0
"641",0
"642",0
"643",0
"644",0
"645",0
"646",0
"647",0
"648",0
"649",1.84297022087776e-14
"650",0
"651",0
"652",3.83026943495679e-14
"653",0
"654",0
"655",0
"656",0.00369491070587435
"657",0
"658",2.82218692859715e-13
"659",0
"660",0
"661",0
"662",0
"663",0
"664",0
"665",0
"666",0
"667",0
"668",0
"669",0
"670",0
"671",0
"672",0
"673",0
"674",0
"675",1.02611252827955e-11
"676",0
"677",0
"678",0
"679",0
"680",0
"681",0
"682",0
"683",0
"684",0
"685",2.22044604925031e-16
"686",2.42694753183059e-13
"687",5.46831502301615e-09
"688",1.38591047782466e-06
"689",0
"690",0
"691",0
"692",8.60823680002287e-05
"693",4.64218731655031e-06
"694",0
"695",0
"696",8.93063502982461e-06
"697",0
"698",9.98803262319825e-11
"699",0
"700",0
"701",0
"702",0
"703",2.4535928844216e-13
"704",5.91859894427671e-13
"705",0
"706",0
"707",0
"708",0
"709",0
"710",0
"711",0.47687354078455
"712",3.26405569239796e-14
"713",0.00800602808623441
"714",0.956866844456322
"715",0.150889120369272
"716",0.816827239809033
"717",0
"718",5.63662664321285e-08
"719",0
"720",0
"721",0.0203529823606519
"722",5.94083767069264e-07
"723",0
"724",1.08206758188123e-05
"725",0
"726",4.62537037226873e-07
"727",0
"728",5.40410934790625e-06
"729",1.47858392196554e-11
"730",0
"731",0
"732",0
"733",0
"734",0
"735",0
"736",0
"737",0
"738",0
"739",0
"740",0
"741",0
"742",0
"743",0
"744",0
"745",0
"746",0
"747",0
"748",3.05294900471154e-10
"749",0
"750",0
"751",0
"752",0
"753",0
"754",0.00159672898661933
"755",0
"756",0
"757",0
"758",0
"759",0.000751436726598054
"760",0.00237256563026711
"761",5.50146981970201e-07
"762",0
"763",0
"764",0
"765",0.00204830276952028
"766",0.00109432442877044
"767",0.205862678532305
"768",0
"769",0
"770",0
"771",0
"772",0
"773",0.00279466745676848
"774",0.152424142978943
"775",0
"776",0
"777",0
"778",0
"779",0.725201397688005
"780",0.0148744512233575
"781",0.199206086824962
"782",0.340373388505308
"783",0.00859999525442756
"784",0
"785",0
"786",1.11022302462516e-16
"787",0.0218153870092342
"788",0.000401714439006939
"789",6.66358079826068e-11
"790",0.00634358696337878
"791",0
"792",0
"793",0
"794",0.000127528445872827
"795",0
"796",0
"797",1.11022302462516e-16
"798",0
"799",0
"800",0
"801",0.0582984027474762
"802",1.38111744263369e-13
"803",0
"804",0
"805",0
"806",0.51761232812776
"807",0
"808",0.00038305128488425
"809",0
"810",0
"811",0
"812",0
"813",0
"814",0
"815",0.00468714062966813
"816",1.45302503362643e-09
"817",0
"818",0
"819",0
"820",0
"821",0
"822",3.3729963266893e-10
"823",0.000764104692177581
"824",2.15716333684668e-13
"825",0
"826",0
"827",0.0172415115447643
"828",0
"829",0
"830",0
"831",0
"832",0
"833",1.25455201782643e-14
"834",0
"835",0
"836",0
"837",0
"838",0
"839",0
"840",0
"841",0
"842",0
"843",0
"844",0.781593688533601
"845",0
"846",0
"847",0
"848",0
"849",0
"850",0
"851",0
"852",0.237047781041904
"853",0
"854",0
"855",0
"856",0
"857",0
"858",0.0032898314490345
"859",0
"860",0
"861",0
"862",0
"863",0
"864",0
"865",2.46554998639681e-11
"866",0.000125387842642377
"867",0
"868",0
"869",0
"870",0
"871",0
"872",0
"873",0.00397767619773615
"874",3.1020190650044e-05
"875",0.056268028162911
"876",0
"877",0
"878",0
"879",0
"880",0
"881",0
"882",0.381493839855784
"883",0
"884",0
"885",0.0418663579363504
"886",0
"887",0.015200695868464
"888",0.011389247178077
"889",0
"890",0
"891",0
"892",0.156629317413118
"893",0
"894",0
"895",0.00401466235111247
"896",0
"897",0
"898",0.557341903709571
"899",3.44543026331579e-07
"900",0
"901",0.0572962628213725
"902",0.0285031156155752
"903",1.69497895098347e-05
"904",0
"905",0
"906",0
"907",0
"908",0.721712301874419
"909",0
"910",0
"911",0
"912",0
"913",0
"914",0
"915",0
"916",0
"917",1.46321394727256e-05
"918",0.000191369435744493
"919",5.55111512312578e-16
"920",0
"921",0
"922",0.339106778973096
"923",0
"924",0
"925",0
"926",0
"927",0
"928",0
"929",8.8442727658844e-05
"930",0
"931",0
"932",0.0184010608528419
"933",0.293749816118035
"934",0.212642524596969
"935",0.00179900825048762
"936",0.0225760785476605
"937",0
"938",0
"939",0
"940",0
"941",0
"942",0.143272268268009
"943",0
"944",0
"945",0
"946",0
"947",0
"948",0
"949",0
"950",0
"951",0
"952",0.912701192774394
"953",0.0475023383651385
"954",0
"955",0
"956",0
"957",0
"958",0
"959",0.0282981263466013
"960",0
"961",0
"962",0
"963",0.00385213419731079
"964",6.40976161037088e-12
"965",0
"966",0
"967",0
"968",0
"969",0
"970",0
"971",0
"972",0
"973",1.13706674076397e-08
"974",0
"975",0
"976",0
"977",0
"978",0
"979",0
"980",0
"981",0
"982",0
"983",0
"984",0
"985",0
"986",0
"987",0
"988",0.00461448421527644
"989",0
"990",0
"991",0
"992",0
"993",0
"994",0
"995",3.21964677141295e-15
"996",0.355116119660996
"997",0.00179019170137473
"998",0
"999",0
"1000",0.242296653451348
"1001",0
"1002",4.71466553045863e-05
"1003",3.33822183784527e-07
"1004",0
"1005",1.11022302462516e-16
"1006",0
"1007",0
"1008",0
"1009",0
"1010",0
"1011",0
"1012",0
"1013",0
"1014",0
"1015",0
"1016",0
"1017",0
"1018",0
"1019",4.77407126264762e-06
"1020",0.0202914763943475
"1021",0
"1022",0
"1023",0
"1024",0
"1025",3.79727915778005e-10
"1026",0
"1027",0
"1028",0
"1029",0
"1030",0
"1031",2.93876034618279e-13
"1032",0
"1033",0
"1034",0
"1035",0
"1036",0
"1037",0
"1038",0
"1039",4.85611550971043e-13
"1040",0
"1041",0
"1042",0
"1043",0
"1044",0
"1045",0
"1046",0
"1047",0
"1048",0
"1049",0
"1050",4.05231403988182e-13
"1051",0
"1052",0
"1053",0
"1054",0.00484389838434285
"1055",0
"1056",0
"1057",0.0169647533048836
"1058",0
"1059",0
"1060",0
"1061",0
"1062",0
"1063",0
"1064",0
"1065",0.204043003649391
"1066",0
"1067",0
"1068",4.96405077070605e-05
"1069",1.24745185899888e-05
"1070",0
"1071",0
"1072",0
"1073",0.0707840412865612
"1074",0.000295136160817777
"1075",0
"1076",0
"1077",0.127974425055056
"1078",4.90405032960162e-06
"1079",0.00948825851042756
"1080",0
"1081",3.40638412889005e-05
"1082",0.0206198306099981
"1083",0
"1084",2.52347665343766e-05
"1085",0
"1086",0
"1087",4.83426677577725e-08
"1088",2.57556217253541e-06
"1089",0
"1090",0
"1091",1.15161213898318e-11
"1092",3.43058914609173e-14
"1093",0
"1094",0
"1095",0
"1096",0
"1097",0
"1098",0
"1099",0
"1100",4.44089209850063e-16
"1101",0.00399498407184951
"1102",2.95750091083846e-11
"1103",1.97118876776869e-10
"1104",2.80216737591488e-08
"1105",3.29514193708746e-13
"1106",1.28020039014132e-10
"1107",0
"1108",0
"1109",0.00040020950648012
"1110",0.0119492725546912
"1111",5.95643515621802e-08
"1112",5.59292577473336e-07
"1113",1.78675885198487e-09
"1114",1.05540288730666e-08
"1115",0.000532899421308297
"1116",0
"1117",0
"1118",9.2377497873386e-09
"1119",0
"1120",7.92044207997833e-12
"1121",0
"1122",0
"1123",4.19493340064747e-09
"1124",1.90369164876358e-10
"1125",0
"1126",0
"1127",1.70352620898484e-12
"1128",0
"1129",3.09297684131238e-08
"1130",1.84689574744823e-09
"1131",2.86528945014908e-09
"1132",7.40933603360361e-09
"1133",2.80957956899641e-09
"1134",1.61538560305985e-11
"1135",2.22044604925031e-16
"1136",0
"1137",6.24500451351651e-13
"1138",5.0505066795381e-10
"1139",0
"1140",0
"1141",0
"1142",2.97539770599542e-14
"1143",1.34864341916341e-11
"1144",0
"1145",1.33363764476258e-10
"1146",1.00033282768308e-08
"1147",0
"1148",0
"1149",7.65550361991885e-08
"1150",0
"1151",2.90284507564742e-06
"1152",0
"1153",0
"1154",6.28910009625727e-08
"1155",1.30347099707162e-05
"1156",3.59878068456609e-08
"1157",1.03198343204269e-08
"1158",1.05167652364457e-10
"1159",0
"1160",0
"1161",0
"1162",0
"1163",2.55652166103459e-11
"1164",0.016487678723847
"1165",9.13757958187489e-12
"1166",0
"1167",0
"1168",0
"1169",0
"1170",0
"1171",0
"1172",0
"1173",0
"1174",6.79911682510692e-12
"1175",5.82485843703129e-06
"1176",1.14657172645138e-11
"1177",0
"1178",1.2803891280555e-10
"1179",0
"1180",0
"1181",0
"1182",0
"1183",4.91778839872836e-11
"1184",1.59768397840487e-05
"1185",6.43734621386116e-07
"1186",4.04507050456582e-05
"1187",0
"1188",0.0048816363066263
"1189",3.00704181555034e-07
"1190",0.000586314904917007
"1191",0
"1192",6.31716901011714e-14
"1193",2.39808173319034e-14
"1194",0
"1195",0
"1196",0.000719846951919401
"1197",0
"1198",0.0825692851590268
"1199",0
"1200",0
"1201",2.08721928629529e-14
"1202",0.0361662709911911
"1203",4.38710290318056e-10
"1204",1.22124532708767e-15
"1205",0
"1206",2.44249065417534e-15
"1207",8.63591642641381e-10
"1208",2.22159257656784e-09
"1209",1.1969976248194e-05
"1210",0
"1211",0
"1212",2.68599218422594e-08
"1213",0
"1214",0
"1215",0
"1216",0
"1217",0
"1218",0
"1219",0
"1220",0.300090050764115
"1221",1.23902691151478e-06
"1222",0
"1223",0
"1224",1.09918974677825e-06
"1225",2.61800303658077e-09
"1226",0
"1227",7.69251988774755e-08
"1228",0
"1229",0
"1230",0
"1231",2.14319739733071e-09
"1232",1.66533453693773e-15
"1233",0
"1234",0
"1235",0
"1236",0.000732535892051356
"1237",0.000114917219882438
"1238",0
"1239",0
"1240",0
"1241",0
"1242",5.98912023392906e-05
"1243",0
"1244",0.0141804850212151
"1245",0
"1246",0
"1247",0
"1248",0
"1249",0
"1250",4.47891294985681e-06
"1251",0
"1252",0
"1253",0.0869027267068399
"1254",0
"1255",5.30460236813912e-06
"1256",1.24444898830234e-12
"1257",0.0104700675252852
"1258",0
"1259",0
"1260",0
"1261",0
"1262",1.65910407634584e-09
"1263",1.0014578055717e-10
"1264",5.32430192289324e-05
"1265",7.05099656439501e-09
"1266",0
"1267",4.44089209850063e-16
"1268",4.19193481865365e-05
"1269",0
"1270",1.24584551564055e-08
"1271",0.0131457495258187
"1272",0.268799086683618
"1273",0
"1274",3.03637435927762e-06
"1275",0.39830306547717
"1276",0.0746746510236234
"1277",0
"1278",0.00807434080698566
"1279",0
"1280",0
"1281",0
"1282",0
"1283",0
"1284",0
"1285",0
"1286",0
"1287",0
"1288",3.10926505286968e-06
"1289",0
"1290",0
"1291",0
"1292",0
"1293",6.42880071399787e-08
"1294",0
"1295",0
"1296",0
"1297",0
"1298",0
"1299",0
"1300",0
"1301",0
"1302",0
"1303",0
"1304",0
"1305",0
"1306",0
"1307",0
"1308",0
"1309",0
"1310",9.03502667348732e-06
"1311",0
"1312",0
"1313",0
"1314",0
"1315",0
"1316",3.66373598126302e-15
"1317",0
"1318",1.0851708436399e-05
"1319",0
"1320",0
"1321",0
"1322",4.58721949314622e-11
"1323",0
"1324",0
"1325",0
"1326",0
"1327",0
"1328",0
"1329",0
"1330",0
"1331",0.00775253841414825
"1332",0
"1333",5.99520433297585e-14
"1334",0.359243700427246
"1335",0
"1336",0
"1337",0.178462665243721
"1338",0
"1339",0
"1340",0.0183009153167794
"1341",0
"1342",0
"1343",0
"1344",0
"1345",0
"1346",0
"1347",0.000739107053668975
"1348",2.66744652269724e-05
"1349",0
"1350",0
"1351",0
"1352",0
"1353",0
"1354",0
"1355",0.000395483643874317
"1356",0.249012638700169
"1357",0
"1358",0.0552808047531185
"1359",0
"1360",0
"1361",0
"1362",7.97066018756176e-05
"1363",0
"1364",0
"1365",0
"1366",0
"1367",0
"1368",0
"1369",0.000274426919644299
"1370",8.32667268468867e-15
"1371",0
"1372",0
"1373",0
"1374",0.300521529291667
"1375",0
"1376",0.0355411242196777
"1377",0.0828701426945144
"1378",0.00916065722623616
"1379",0
"1380",0
"1381",0
"1382",0
"1383",0.1262050416261
"1384",0.771017439778798
"1385",0.10987959312752
"1386",0.0103744200425481
"1387",0
"1388",0
"1389",0
"1390",0
"1391",0
"1392",0
"1393",2.20608945666889e-06
"1394",6.90070822706446e-09
"1395",0
"1396",1.32103280869877e-07
"1397",0.00668378052471552
"1398",1.00572883354744e-11
"1399",0
"1400",0
"1401",0.457068537681475
"1402",0.988588601159548
"1403",0.180383655222347
"1404",0.00150853760666658
"1405",0.0272672722380549
"1406",0.000954216432296984
"1407",0
"1408",2.87829586831378e-08
"1409",0
"1410",0
"1411",0
"1412",0
"1413",0.0086865307120213
"1414",0
"1415",1.43918129880127e-05
"1416",0.00136620928831532
"1417",9.04204843221734e-07
"1418",0.000655003357998507
"1419",5.73763259126281e-12
"1420",0.0350178929563861
"1421",0
"1422",0
"1423",0.192857275304274
"1424",0
"1425",0.480536674929032
"1426",5.73385839792717e-05
"1427",0.512099625365645
"1428",0.115388552017924
"1429",0.169741241776857
"1430",3.03878033847127e-11
"1431",0.0185900949703728
"1432",0.381465582974621
"1433",0.00872383600561155
"1434",0.0643609871843129
"1435",0
"1436",0.00259781159268524
"1437",0
"1438",8.88178419700125e-15
"1439",0.260218454327894
"1440",0.667207237639663
"1441",0.0436426727676368
"1442",9.75940007030829e-07
"1443",0.315313524738236
"1444",0.00792025297167354
"1445",0
"1446",0.0024343037988791
"1447",0.000517980965793696
"1448",0.0264393369899641
"1449",0.0610619483368906
"1450",0.00806014062114568
"1451",0
"1452",0.00122545990218148
"1453",0.0467029988635173
"1454",0
"1455",0.664400487886823
"1456",0
"1457",0
"1458",0.850691627819039
"1459",0.00649392134657423
"1460",0.0172571581282442
"1461",0.775537906631982
"1462",0.116128476638485
"1463",0
"1464",8.89401108317145e-10
"1465",0.912247679103485
"1466",0.31862443206041
"1467",0.0189234068357729
"1468",0
"1469",0.0237127044506614
"1470",0
"1471",0
"1472",0.0105451148014802
"1473",0
"1474",0
"1475",0
"1476",0
"1477",0
"1478",0
"1479",0
"1480",0.569268760274603
"1481",1.00688292031803e-05
"1482",0.00631868433772487
"1483",0.0110379753559523
"1484",0.00167625792689252
"1485",0
"1486",0.816771443088868
"1487",0
"1488",0
"1489",0.348209820582392
"1490",0.227360528224606
"1491",0
"1492",6.44648713299389e-08
"1493",0
"1494",0.478852069428539
"1495",0
"1496",0
"1497",0.186822864154423
"1498",0.022058511266943
"1499",0
"1500",0
"1501",0
"1502",0
"1503",0
"1504",0
"1505",0.132940015961446
"1506",0
"1507",0
"1508",0.690536649365702
"1509",0
"1510",0
"1511",0
"1512",0
"1513",0
"1514",0
"1515",0
"1516",0.0182313460646419
"1517",0
"1518",0
"1519",0
"1520",1.6879360253963e-06
"1521",0
"1522",6.51951869012901e-06
"1523",0
"1524",0
"1525",0
"1526",1.94355239635513e-06
"1527",0
"1528",0
"1529",2.39653587573718e-05
"1530",0.000105394393808189
"1531",0
"1532",4.41868763800812e-14
"1533",0
"1534",0.00468016218579104
"1535",5.98255570886108e-05
"1536",0
"1537",1.23484654945827e-07
"1538",0.0174660572117611
"1539",0.121480634097278
"1540",0.000867025616772432
"1541",0.000999218608075281
"1542",0
"1543",4.66125372349246e-05
"1544",0.0711829785416597
"1545",0.000845300032317642
"1546",0.425823389367435
"1547",7.56542606339394e-11
"1548",0.0176296088615944
"1549",0.0345081881728548
"1550",4.2334667194055e-07
"1551",0.0906820213586166
"1552",0.294939123604311
"1553",0
"1554",0.314842256188034
"1555",0.449382196868363
"1556",0
"1557",0.0126041262881429
"1558",0.581571449759548
"1559",8.01823607510244e-10
"1560",0
"1561",0
"1562",0
"1563",0.00926281221764558
"1564",0.185340886918026
"1565",8.09413864599762e-07
"1566",0.00470722136983881
"1567",0.0817837215020772
"1568",8.25589130204474e-06
"1569",0
"1570",6.78877341075967e-06
"1571",0
"1572",4.22509736064391e-06
"1573",1.87772020154853e-12
"1574",0.00064373756421765
"1575",0
"1576",0.0141858308809699
"1577",1.97323925499315e-06
"1578",0
"1579",0
"1580",2.4255726316369e-09
"1581",1.06204089966866e-09
"1582",0
"1583",0.00794061669279322
"1584",0.00916410913551791
"1585",1.44884179098526e-08
"1586",0
"1587",0
"1588",6.68830936523257e-07
"1589",0.222846862739233
"1590",2.01843519676004e-09
"1591",0
"1592",0.010795790806524
"1593",0.0112212386239257
"1594",0
"1595",0.0112407952555512
"1596",8.61797242457385e-08
"1597",1.09003737147617e-08
"1598",2.99793315727825e-08
"1599",4.97011276578974e-08
"1600",9.78472354251636e-08
"1601",0
"1602",3.99680288865056e-13
"1603",0
"1604",0
"1605",4.56557014416603e-12
"1606",0.0284658605102917
"1607",0.00958032602915426
"1608",0
"1609",0
"1610",0
"1611",0
"1612",8.21565038222616e-15
"1613",0.338770636436235
"1614",0
"1615",0
"1616",2.37070198916278e-07
"1617",0.0233330487065592
"1618",0
"1619",0
"1620",0
"1621",0
"1622",0
"1623",0
"1624",0
"1625",0
"1626",0
"1627",0
"1628",0
"1629",0
"1630",0
"1631",0
"1632",0
"1633",0
"1634",0
"1635",0
"1636",0
"1637",0
"1638",0
"1639",0
"1640",0
"1641",0
"1642",0
"1643",0
"1644",0
"1645",0
"1646",0
"1647",0
"1648",0
"1649",0
"1650",0
"1651",0
"1652",0
"1653",0
"1654",0
"1655",0
"1656",0
"1657",0
"1658",2.16179894985125e-07
"1659",0.0253063922559128
"1660",6.96605756411728e-08
"1661",0
"1662",0.559448101207232
"1663",0.100600243361625
"1664",7.90520870985745e-10
"1665",0
"1666",6.60109932023589e-05
"1667",0.00236247301718129
"1668",0
"1669",0.0026758210606791
"1670",0.0001483439643436
"1671",0
"1672",0
"1673",0
"1674",0
"1675",0.12345838810535
"1676",5.49116307979602e-13
"1677",1.02857440364978e-06
"1678",0
"1679",0
"1680",0
"1681",0
"1682",0
"1683",1.22457599616155e-13
"1684",0
"1685",0
"1686",0
"1687",0
"1688",0
"1689",0.512347254553625
"1690",0.616418919021658
"1691",0.0608855242436233
"1692",0
"1693",0
"1694",3.5527136788005e-15
"1695",0
"1696",6.88769879919615e-06
"1697",0
"1698",0
"1699",0.26827897623425
"1700",0
"1701",0
"1702",0
"1703",0
"1704",0
"1705",0
"1706",0
"1707",0
"1708",0
"1709",0
"1710",0
"1711",0
"1712",0
"1713",0
"1714",0
"1715",0
"1716",0
"1717",0
"1718",1.86189134110393e-08
"1719",7.93144627753151e-09
"1720",0.0542842265206024
"1721",0.0881102559855985
"1722",0.00402242161391375
"1723",1.06137321154165e-13
"1724",0
"1725",0
"1726",0
"1727",0
"1728",2.04036841866539e-08
"1729",4.66293670342566e-15
"1730",0.000311896702408054
"1731",1.2125424220244e-08
"1732",2.85971463753754e-06
"1733",0
"1734",1.81554679068441e-08
"1735",0
"1736",0
"1737",0.000651587671147924
"1738",0
"1739",0
"1740",0
"1741",0
"1742",0
"1743",0
"1744",0.547010282459821
"1745",0
"1746",0.00149036876391362
"1747",8.13623235451644e-08
"1748",0
"1749",0
"1750",4.92749329117359e-08
"1751",3.49698048296432e-12
"1752",0
"1753",6.07644147825326e-05
"1754",3.60320992393026e-05
"1755",0.15062656148952
"1756",0
"1757",1.00630614952024e-12
"1758",5.10312551434966e-05
"1759",0.000876675123296256
"1760",0.0777151929132958
"1761",0
"1762",0
"1763",0
"1764",0.969111278443118
"1765",0.0729904100420683
"1766",1.37334588146132e-13
"1767",0
"1768",0
"1769",2.34985031433155e-10
"1770",0.835491168340061
"1771",9.00767808997838e-06
"1772",0
"1773",0
"1774",0
"1775",0
"1776",0
"1777",0
"1778",0
"1779",0.000353148920129609
"1780",0
"1781",0
"1782",0
"1783",0.000342677273510561
"1784",0
"1785",0
"1786",0.000131978638240993
"1787",3.85969059746305e-06
"1788",0
"1789",5.55111512312578e-16
"1790",0
"1791",4.14591443842482e-07
"1792",0
"1793",0
"1794",1.6459168694638e-08
"1795",6.96740732419876e-06
"1796",0.00178704713937217
"1797",0
"1798",8.54871728961371e-15
"1799",0.195885114874496
"1800",0
"1801",0
"1802",8.03692279727208e-07
"1803",7.35776517490905e-09
"1804",0.112146921497777
"1805",0.000550772549005929
"1806",0
"1807",0
"1808",0
"1809",2.42250663973209e-12
"1810",0
"1811",0
"1812",0
"1813",0
"1814",0.0203517652107011
"1815",0.000100730332598609
"1816",2.33487519318842e-08
"1817",0.0163987258995975
"1818",0
"1819",0.815142848791147
"1820",2.62623256475081e-12
"1821",0.491048833137652
"1822",0
"1823",0.000135668634268726
"1824",0.00243918397895859
"1825",0
"1826",0.00381146884477135
"1827",0
"1828",0
"1829",0
"1830",0.000125847113799149
"1831",0.00525345853678738
"1832",0
"1833",5.34792513717797e-07
"1834",0.0317616217620811
"1835",2.63192851905902e-05
"1836",0
"1837",0.0122275892470899
"1838",0.666474386808877
"1839",0.000896654658373408
"1840",0.252574122097474
"1841",0
"1842",0
"1843",2.91627609949607e-07
"1844",0.00156702006824572
"1845",0.00013468880292522
"1846",2.08568503745621e-05
"1847",1.60982338570648e-14
"1848",0
"1849",0.339423892276703
"1850",2.64719779430322e-08
"1851",0
"1852",0.288622279190603
"1853",0.0505628050800911
"1854",6.67472506155065e-08
"1855",0.0878316280876059
"1856",9.98307623846229e-05
"1857",0.0311679487804289
"1858",0
"1859",0
"1860",0
"1861",0
"1862",0
"1863",0
"1864",0
"1865",0
"1866",0
"1867",0
"1868",0
"1869",0
"1870",0
"1871",2.41688990754163e-06
"1872",5.34266308971354e-09
"1873",0
"1874",0
"1875",0.000143496482992389
"1876",0.00541951227260185
"1877",0.00129452677450037
"1878",0.0012906630802012
"1879",0
"1880",8.10462807976364e-15
"1881",1.22701313554074e-07
"1882",0
"1883",5.67978208909636e-09
"1884",0.00222699532257764
"1885",0.00203124861256687
"1886",2.24152056915727e-08
"1887",0.85869078265363
"1888",0.00801983494378611
"1889",0.000101606592538883
"1890",0
"1891",6.50072483621145e-07
"1892",0.00282617055575674
"1893",0
"1894",0
"1895",4.44709429089363e-05
"1896",0.0620652069994887
"1897",0
"1898",0
"1899",0
"1900",0
"1901",0
"1902",0
"1903",1.52354890270434e-06
"1904",8.26229203609863e-07
"1905",8.88178419700125e-16
"1906",0.000260776803927776
"1907",0.0334763666751128
"1908",0.209887111828976
"1909",0.00301904636266548
"1910",0.00756286821267305
"1911",2.22089737267339e-07
"1912",0.000493469534703972
"1913",0.345442908341081
"1914",0.0215173017577986
"1915",0.000345641873069402
"1916",0.000317313264573849
"1917",0
"1918",0
"1919",0
"1920",0.094052462923462
"1921",0
"1922",0.0243903771035128
"1923",3.96098905988129e-05
"1924",0.0774741762170723
"1925",0.39088582910018
"1926",0.000304747141843031
"1927",0.278936669711121
"1928",0
"1929",0.174375225044842
"1930",0.257333022506421
"1931",0.391259868348273
"1932",0
"1933",0.446029290849369
"1934",0.128397383758531
"1935",0
"1936",1.62641481715742e-06
"1937",0
"1938",9.2315951246702e-06
"1939",6.33430597973828e-08
"1940",0
"1941",0
"1942",0.016425822751879
"1943",0.15633723243534
"1944",0.00146748891584569
"1945",0.000226533715933064
"1946",0.000244350378991065
"1947",2.22044604925031e-16
"1948",0
"1949",0
"1950",4.70654413220473e-08
"1951",1.37445610448594e-13
"1952",3.8746783559418e-14
"1953",0
"1954",0
"1955",0
"1956",0
"1957",7.99360577730113e-14
"1958",8.49373005262777e-09
"1959",0.0238137566111252
"1960",0
"1961",0
"1962",0
"1963",0
"1964",0.000950623871589173
"1965",0.000390851998096409
"1966",0
"1967",0
"1968",5.2939335137836e-09
"1969",0.137003962117035
"1970",0.00137468037010802
"1971",0
"1972",0
"1973",1.07944794419668e-05
"1974",0
"1975",6.4861893933621e-07
"1976",0.0135527334642005
"1977",0.248358040748727
"1978",2.90748465070489e-06
"1979",0.00960902961040477
"1980",0.0138706648300705
"1981",5.71865495846424e-06
"1982",0
"1983",0
"1984",1.11022302462516e-16
"1985",0
"1986",0.0314608299606864
"1987",0.00064661801556587
"1988",0
"1989",0
"1990",0
"1991",1.11022302462516e-16
"1992",2.44249065417534e-15
"1993",3.00973546085714e-09
"1994",2.76946764687924e-06
"1995",0.0897320496058446
"1996",0
"1997",0
"1998",0.589146080316759
"1999",0.366431670159213
"2000",0.0010415215770776
"2001",5.90638649100583e-14
"2002",1.11022302462516e-16
"2003",2.77555756156289e-15
"2004",9.14395960505132e-07
"2005",0
"2006",0
"2007",0.0177094922260969
"2008",0
"2009",0
"2010",0
"2011",0
"2012",0
"2013",0
"2014",4.35477929960904e-06
"2015",0.0193600870221988
"2016",7.61814222816071e-09
"2017",0.00144297921333325
"2018",0.148982415386798
"2019",0
"2020",0
"2021",5.12301312483032e-12
"2022",0
"2023",5.55111512312578e-16
"2024",0.00987599084404212
"2025",3.37379985482222e-06
"2026",0
"2027",0.0039402901136093
"2028",0
"2029",0
"2030",0
"2031",0
"2032",0
"2033",1.0119533965236e-06
"2034",3.0909719228589e-12
"2035",0.00394349181382181
"2036",0.361235428455661
"2037",0
"2038",0
"2039",0.0202252475036523
"2040",6.66133814775094e-16
"2041",0
"2042",1.28600352589103e-10
"2043",0.0372441370146979
"2044",1.1035422044503e-05
"2045",2.168204197317e-05
"2046",1.36284906360196e-07
"2047",0.00791575827497593
"2048",8.18012324543815e-13
"2049",0.00377871733869273
"2050",0.000240011388618289
"2051",0.00631108091304289
"2052",0.00104785123566875
"2053",0.00416212241395308
"2054",0.0355694075326626
"2055",0.00908614978190969
"2056",0
"2057",0
"2058",3.00431315211069e-05
"2059",1.11022302462516e-16
"2060",1.07879042454684e-06
"2061",9.11188002827856e-09
"2062",0.00181667890237747
"2063",2.59312668627887e-05
"2064",0
"2065",0
"2066",0
"2067",0
"2068",1.62471671741882e-05
"2069",1.0724754417879e-13
"2070",5.26907435094426e-06
"2071",6.07391914542177e-12
"2072",0.0586821591550916
"2073",1.77760506314684e-08
"2074",0.000803015119152817
"2075",0.0365448091808016
"2076",0
"2077",2.38535857732813e-11
"2078",4.0452790196488e-06
"2079",0.012717839811384
"2080",2.72958511305932e-05
"2081",0.027698269314373
"2082",0.168124985462758
"2083",0.357084257908058
"2084",1.27965330554147e-08
"2085",0.0255794016588601
"2086",0.000110611642495262
"2087",0
"2088",0.00727665941425804
"2089",0.00579115011405185
"2090",0.0001023218875148
"2091",0.0836573969442638
"2092",1.75735700436164e-08
"2093",0.00424783979953225
"2094",0.00262744359010714
"2095",0.120226921406685
"2096",0.648954812010098
"2097",0.0325514446025758
"2098",0.179290530464859
"2099",6.15843363727109e-05
"2100",0.0222206535741688
"2101",0.00475541157743953
"2102",0.00095220830671916
"2103",0.00243338194539233
"2104",0.000109930095537947
"2105",0.297303428218752
"2106",0.0519277119921063
"2107",0.128476824577402
"2108",0.0316044507957263
"2109",0.0151650838459997
"2110",0.0769769321897417
"2111",0.00371059347309077
"2112",0
"2113",0.0275158347914283
"2114",0.0192893091800126
"2115",0.00127820334900131
"2116",0.00952658161774456
"2117",0
"2118",0
"2119",0
"2120",0
"2121",0
"2122",0.000636386413756851
"2123",0
"2124",6.9696486804105e-08
"2125",2.88657986402541e-15
"2126",0.0155788131179715
"2127",2.21910546410742e-05
"2128",0
"2129",0
"2130",0
"2131",1.46520354959989e-07
"2132",2.38117437767471e-07
"2133",0
"2134",0
"2135",0
"2136",0.00587516683846567
"2137",0
"2138",0.0762232610238419
"2139",0.476558616526526
"2140",2.01813565858799e-10
"2141",1.22285884196494e-07
"2142",5.06707822922614e-07
"2143",0.000316491629962279
"2144",0.000126168207949418
"2145",0
"2146",0
"2147",0
"2148",0
"2149",0
"2150",0
"2151",0
"2152",0
"2153",0
"2154",0
"2155",1.75583843409211e-06
"2156",0.00111682334611252
"2157",0
"2158",0
"2159",0
"2160",0
"2161",4.11815023644291e-05
"2162",0
"2163",0
"2164",0.0239024453184727
"2165",5.04233321763081e-11
"2166",0
"2167",0
"2168",0
"2169",0
"2170",0.000601330584477422
"2171",0
"2172",0
"2173",0.000104640461033978
"2174",0
"2175",0.0026304881193363
"2176",0.000132055618453086
"2177",9.14218090242169e-06
"2178",0.00382212712657037
"2179",6.61777809632946e-05
"2180",6.10622663543836e-15
"2181",0
"2182",0.0790503280124165
"2183",0
"2184",0
"2185",1.90625293328139e-13
"2186",3.75562416212727e-05
"2187",1.11022302462516e-16
"2188",0.0461696260190355
"2189",5.16315481832175e-05
"2190",1.34347438579541e-05
"2191",2.58044270395885e-07
"2192",0
"2193",0
"2194",0.00202201518704426
"2195",3.31403767014349e-05
"2196",0.0116728902409816
"2197",0.00013731152071117
"2198",1.63159818988845e-10
"2199",0.000394758693580299
"2200",1.46845019810549e-07
"2201",0
"2202",1.22124532708767e-15
"2203",2.86215495748365e-13
"2204",8.15391691055822e-07
"2205",3.52981807719699e-05
"2206",0.00569326414831894
"2207",0
"2208",2.87314616542744e-12
"2209",0.137782424960575
"2210",0.161045949201694
"2211",0
"2212",7.72256703029939e-11
"2213",0
"2214",0
"2215",0
"2216",4.57039961432315e-11
"2217",4.60848822119164e-05
"2218",0.0172687989742146
"2219",0.00250411002703477
"2220",0.00191624500551169
"2221",7.94229376710476e-08
"2222",6.7153441929424e-07
"2223",0
"2224",2.11290352325477e-07
"2225",0
"2226",0.0101859730342662
"2227",2.47359458138696e-07
"2228",0.000354801666385796
"2229",9.32021126942573e-11
"2230",3.3188896075842e-11
"2231",6.7390537594747e-14
"2232",1.82813986625563e-05
"2233",1.96504523763963e-09
"2234",1.11514014689007e-08
"2235",2.27613792206371e-05
"2236",4.01048083631395e-11
"2237",1.4432899320127e-15
"2238",1.12654118753497e-05
"2239",1.56840865850327e-08
"2240",2.66453525910038e-15
"2241",5.67768054793305e-13
"2242",2.38272764963021e-07
"2243",8.38551328374848e-09
"2244",0
"2245",1.11022302462516e-16
"2246",0
"2247",0
"2248",1.14627138891876e-08
"2249",1.81124996845305e-06
"2250",5.45959783826433e-07
"2251",9.51427414630501e-09
"2252",9.91307736397662e-06
"2253",2.22044604925031e-16
"2254",1.32464039737101e-10
"2255",1.51093547606784e-06
"2256",3.77649648442002e-07
"2257",0
"2258",0.0232281043819722
"2259",6.40317974087701e-07
"2260",0
"2261",3.92284538186516e-10
"2262",5.51352141719974e-09
"2263",6.07333072721872e-11
"2264",7.29289960480495e-05
"2265",1.16237131031482e-10
"2266",0
"2267",9.12048214729566e-13
"2268",0
"2269",0
"2270",7.59199786348752e-06
"2271",0.0260773388986727
"2272",9.78767702496386e-05
"2273",4.11557454582656e-06
"2274",0
"2275",0.000770410200460758
"2276",4.88315266000683e-09
"2277",0.000119431662795821
"2278",0.000144844278164413
"2279",1.97240279664612e-09
"2280",1.32658851468292e-05
"2281",0
"2282",0
"2283",0
"2284",0
"2285",8.98200919378089e-05
"2286",0
"2287",4.83115238569809e-06
"2288",4.5043593998928e-05
"2289",0
"2290",8.07284461501467e-10
"2291",0.0102829669306613
"2292",0
"2293",0
"2294",0
"2295",0
"2296",1.14578740761928e-06
"2297",0.0201444002700871
"2298",0
"2299",0
"2300",0
"2301",0
"2302",0
"2303",0
"2304",0
"2305",0
"2306",0
"2307",0.0334910453638478
"2308",0.777726674162606
"2309",0.000194591027694702
"2310",0
"2311",0
"2312",0
"2313",0
"2314",0
"2315",7.4720062794853e-06
"2316",0
"2317",0
"2318",0
"2319",0
"2320",0
"2321",2.27157737064942e-10
"2322",0
"2323",0
"2324",0
"2325",0
"2326",1.11022302462516e-16
"2327",0
"2328",0
"2329",9.88098491916389e-15
"2330",0
"2331",0.028659991785988
"2332",9.2635869429758e-06
"2333",0
"2334",0
"2335",0
"2336",0
"2337",3.43202882656657e-05
"2338",0.334957205808098
"2339",0.00185659901966717
"2340",8.02115222817701e-05
"2341",0.0157962581463658
"2342",0
"2343",0
"2344",0
"2345",2.07242001337704e-11
"2346",0
"2347",0
"2348",0
"2349",0
"2350",0
"2351",2.42028619368284e-14
"2352",0
"2353",0
"2354",0
"2355",0
"2356",2.22044604925031e-16
"2357",0
"2358",0
"2359",3.90374581143993e-05
"2360",3.49668758392596e-08
"2361",0
"2362",0
"2363",0
"2364",0
"2365",1.11022302462516e-16
"2366",0
"2367",1.98951966012828e-13
"2368",7.07030159596833e-06
"2369",6.4701709203363e-05
"2370",0
"2371",2.02060590481778e-14
"2372",4.53914862363902e-08
"2373",0
"2374",0.00143613752522886
"2375",0.000553179735818365
"2376",4.44089209850063e-16
"2377",8.01880984169223e-07
"2378",9.0566954859983e-05
"2379",0
"2380",1.47198506017521e-06
"2381",1.3237111406994e-10
"2382",4.28660085405319e-06
"2383",1.28883409500347e-08
"2384",0
"2385",0
"2386",0.000322102091530163
"2387",0.00122307932588073
"2388",0.946270068697331
"2389",0.00100494386745975
"2390",1.75999357310275e-07
"2391",0
"2392",8.55152382408519e-05
"2393",0
"2394",0
"2395",0
"2396",1.65398139628792e-10
"2397",0.000959760722170078
"2398",0.0087247655866034
"2399",0.6406873728278
"2400",8.26129808362275e-05
"2401",1.72250355718884e-05
"2402",0.00573584556354212
"2403",0.000757859080265266
"2404",0
"2405",0.797199828390625
"2406",1.21516241513575e-09
"2407",0.155008282436715
"2408",0.0115943634553832
"2409",3.55424500431134e-06
"2410",1.08833404510733e-08
"2411",0.328210309110796
"2412",0.00581219895237572
"2413",0.000360704469332562
"2414",2.24635072210155e-07
"2415",0
"2416",6.79132305947405e-11
"2417",0
"2418",0.130126744230849
"2419",0.62028416542941
"2420",0
"2421",0.033300370692791
"2422",5.21269341158259e-06
"2423",0.156851073362809
"2424",0.17518893039699
"2425",0.889541211333957
"2426",0.163772032107727
"2427",0
"2428",0.000376506403951815
"2429",0.429637239255832
"2430",0.0241695088301075
"2431",0.0478520539336442
"2432",0.021162352927642
"2433",0
"2434",0
"2435",0.942148175149404
"2436",0.0863966045011586
"2437",0.660086654250059
"2438",0.307406954088429
"2439",0.0726977222077588
"2440",0.481930283853527
"2441",0.000187823947047416
"2442",0.012448655962735
"2443",0
"2444",0
"2445",0
"2446",0
"2447",0.525099562313723
"2448",0.528725812798926
"2449",0.0102055270524503
"2450",0
"2451",0.048129053788982
"2452",0.0677139382291742
"2453",0.302442907927409
"2454",0
"2455",6.14405246679439e-08
"2456",0.23271224093453
"2457",0.0155306898137081
"2458",0
"2459",0
"2460",0.693013294945744
"2461",0.00400727232288778
"2462",0.747080208868094
"2463",0
"2464",0
"2465",0.15133591004163
"2466",0.678548116642838
"2467",0.148626274555399
"2468",0.194754781032893
"2469",0.127386737522042
"2470",0
"2471",0.362058298112494
"2472",0.0223298282397918
"2473",0.279672306274262
"2474",0.0342949650744466
"2475",0.159882270475306
"2476",0.870947253591181
"2477",0.00172505864051498
"2478",0.000609450461545036
"2479",0.167375313800779
"2480",0.30588365465803
"2481",0.000846520565630504
"2482",0.00621445649419472
"2483",0.394160760270628
"2484",0
"2485",0.00027729192935344
"2486",0.0795241702240305
"2487",0.364228328072142
"2488",8.06479083517164e-05
"2489",0.00135876973968241
"2490",0.135033816680508
"2491",0.00221285982722874
"2492",0.0757521053621919
"2493",0.706239147443215
"2494",0.281472055024065
"2495",0.516340742926859
"2496",0
"2497",0.000185693421188682
"2498",0.285356444673475
"2499",0.000770185317797267
"2500",0.0234060857174895
"2501",0.00413210345343151
"2502",0.092759540104846
"2503",0.0137405594148049
"2504",0.580271491699446
"2505",0.017756220115889
"2506",0.0873744104044356
"2507",1.67881841539597e-07
"2508",0.0474510575606842
"2509",0
"2510",0.0478365670718647
"2511",0.0356128591990633
"2512",1.76855197153714e-10
"2513",0.0829902038655825
"2514",0.343732552142123
"2515",0.269084777768685
"2516",0
"2517",0.0524306349870166
"2518",0.348744966382774
"2519",0.0532375860728693
"2520",0.29735877237374
"2521",0.00187232733526332
"2522",0
"2523",0.526718933555971
"2524",0.111472470786879
"2525",0
"2526",0.00115082039727676
"2527",0.112812124836991
"2528",0.789651947622006
"2529",0.000527257472308307
"2530",0.721982730140678
"2531",0.00267773091060886
"2532",5.36617770368064e-05
"2533",6.67974342505318e-10
"2534",0
"2535",0
"2536",0
"2537",1.51952610383255e-07
"2538",0.0083686235690722
"2539",0.248066794898898
"2540",0
"2541",0.00565481091472719
"2542",0.00201105879578967
"2543",0.516212104155567
"2544",6.92028173765458e-07
"2545",0.0322787868499479
"2546",0.000475750156025967
"2547",4.09402959866689e-06
"2548",0.0599311735950497
"2549",7.14688926978235e-05
"2550",1.68113432842398e-05
"2551",0.0363224075530586
"2552",0.188894427867995
"2553",9.16541183834108e-05
"2554",0.342672544717739
"2555",0.953181532899067
"2556",0.477766887608952
"2557",0.00776888815478971
"2558",0
"2559",1.11963748636867e-05
"2560",0.000119310113516513
"2561",0.108785420446306
"2562",1.35796714983982e-08
"2563",0
"2564",0.235926444505276
"2565",0.0477603597911155
"2566",0.436255199871154
"2567",0.00533671963986249
"2568",0.0720759650154841
"2569",0.00712058064007204
"2570",0.0178198347052085
"2571",0.46227821283756
"2572",0.0130055560971842
"2573",0.275229101027409
"2574",0.954974113677157
"2575",0.170715834946445
"2576",0.896319394437037
"2577",2.99611238563369e-06
"2578",5.94769371531356e-08
"2579",5.55111512312578e-16
"2580",0
"2581",0
"2582",0.959617151304905
"2583",0.00665344497836629
"2584",0.000149636268139797
"2585",0.0109173764472464
"2586",0.673198549800906
"2587",0.00086428440171038
"2588",0.000161289113971841
"2589",0.258277266751437
"2590",0.236591358103446
"2591",1.27116861481369e-09
"2592",0.22273169283243
"2593",0.000635292600242532
"2594",0.197412910188834
"2595",0.390564947719382
"2596",0.0110267264967259
"2597",0.00810587031176313
"2598",0.000728704570333361
"2599",0.45256595583863
"2600",0.218123525320134
"2601",0
"2602",0
"2603",4.04121180963557e-13
"2604",0.0302803460921106
"2605",0.198992789946824
"2606",0.146819544757243
"2607",0.00619037451907467
"2608",0.339314775006649
"2609",5.75371215605358e-06
"2610",0.447484168821531
"2611",0
"2612",0.0469227244330473
"2613",0
"2614",0
"2615",0.104058838160546
"2616",7.95290347244126e-07
"2617",0.480530215820347
"2618",1.69864122767649e-14
"2619",0.0652857280798858
"2620",0.0226392698832526
"2621",0.1017693114076
"2622",1.631273918834e-06
"2623",0
"2624",0
"2625",0
"2626",4.02188882198118e-09
"2627",8.43769498715119e-14
"2628",0.00272903527545454
"2629",0
"2630",0
"2631",0
"2632",1.21269402320046e-06
"2633",0
"2634",0
"2635",0
"2636",0
"2637",8.5654346525077e-05
"2638",0
"2639",0
"2640",0
"2641",1.37456712678841e-12
"2642",7.03070934804373e-12
"2643",0
"2644",0
"2645",4.44089209850063e-16
"2646",0.405737625750876
"2647",0
"2648",0
"2649",0
"2650",0
"2651",0.0785128641620803
"2652",0
"2653",0
"2654",0
"2655",1.92538989831625e-05
"2656",0
"2657",0
"2658",6.14021713596369e-05
"2659",0
"2660",0
"2661",0
"2662",0
"2663",0
"2664",1.4432899320127e-15
"2665",0
"2666",0
"2667",0
"2668",0.00223423870607842
"2669",0
"2670",4.42254011190357e-11
"2671",0
"2672",0
"2673",0
"2674",5.40805707571756e-05
"2675",0
"2676",0
"2677",0
"2678",0.000169108740025292
"2679",3.94432869699202e-08
"2680",0
"2681",6.26351415178306e-10
"2682",0
"2683",0
"2684",3.84684099129506e-05
"2685",1.01177533018415e-09
"2686",0.00276351785116846
"2687",0
"2688",0.168994658111097
"2689",0.00918855838541732
"2690",0
"2691",3.43891079279679e-07
"2692",3.03090885722668e-14
"2693",0
"2694",0
"2695",0
"2696",0
"2697",0
"2698",0
"2699",0
"2700",0
"2701",0
"2702",0.0740409152088621
"2703",0.0125828121445014
"2704",0.0102915550538785
"2705",0
"2706",0
"2707",0.408318471244705
"2708",4.19863850353863e-08
"2709",3.43092221299912e-12
"2710",3.99680288865056e-15
"2711",3.33066907387547e-16
"2712",2.63344901441087e-13
"2713",0
"2714",1.21024301691364e-11
"2715",0
"2716",0
"2717",0
"2718",0
"2719",1.49444134844856e-09
"2720",0
"2721",0
"2722",0.000250045389946552
"2723",1.58761892521397e-14
"2724",3.53195361846304e-10
"2725",0
"2726",0
"2727",0
"2728",0
"2729",0
"2730",0.00418587298830553
"2731",0
"2732",1.15500831121551e-10
"2733",3.86357612569554e-14
"2734",3.33066907387547e-16
"2735",0.225944436820018
"2736",0
"2737",0
"2738",0
"2739",0
"2740",2.40530817485762e-10
"2741",0
"2742",0
"2743",7.88258347483861e-15
"2744",0
"2745",0.000308089938517497
"2746",1.36451598212739e-05
"2747",0.00065354493722436
"2748",0.0125406485576429
"2749",0
"2750",0
"2751",0
"2752",0.000951001228502779
"2753",0.16766070282954
"2754",0.103643423515933
"2755",2.40363284831346e-13
"2756",0.00060698137131121
"2757",0.163833353097311
"2758",0.0501213923546261
"2759",0.18047465545447
"2760",0.787098641236313
"2761",0.00689336661347217
"2762",0
"2763",1.11022302462516e-16
"2764",0.000877342373662326
"2765",0.656159712905905
"2766",2.22044604925031e-16
"2767",1.66533453693773e-15
"2768",0
"2769",0
"2770",0.014195940220518
"2771",3.90876220279779e-12
"2772",1.49436019114546e-13
"2773",0
"2774",1.60014224093175e-11
"2775",1.0073095690899e-09
"2776",0
"2777",0
"2778",0
"2779",5.632225731389e-05
"2780",0
"2781",0
"2782",9.66216510134288e-08
"2783",0.00343322953181358
"2784",2.39031017201796e-13
"2785",0.00973168377645128
"2786",0.466634206928256
"2787",0.0117449282264396
"2788",5.19677342599723e-05
"2789",2.57904808620424e-13
"2790",0.00739648319371489
"2791",0
"2792",0
"2793",1.36777701609248e-07
"2794",0.00046299952295159
"2795",0
"2796",0
"2797",0
"2798",7.24920123928996e-12
"2799",0
"2800",0.0300442733261541
"2801",0.034547828984847
"2802",0.706047059724785
"2803",0
"2804",2.46500600661337e-05
"2805",0
"2806",0
"2807",2.76778817731582e-06
"2808",0
"2809",0
"2810",0
"2811",0
"2812",0
"2813",0.338337021312663
"2814",0
"2815",0
"2816",0
"2817",0.0010139931397416
"2818",0.861781938047356
"2819",7.67954067004695e-08
"2820",0
"2821",0
"2822",4.97198993087977e-09
"2823",0
"2824",0
"2825",0
"2826",0
"2827",5.55111512312578e-16
"2828",0
"2829",0
"2830",0
"2831",0
"2832",0
"2833",3.33066907387547e-16
"2834",0
"2835",0
"2836",5.88996425351374e-05
"2837",0
"2838",0
"2839",0
"2840",0
"2841",0
"2842",0
"2843",0
"2844",0.00883507025323738
"2845",3.04405239504035e-06
"2846",0.0154647065787217
"2847",0.0701922989182808
"2848",1.11022302462516e-16
"2849",0
"2850",0
"2851",5.75956474513362e-07
"2852",4.97935026544383e-13
"2853",0
"2854",5.02044849359784e-07
"2855",0.00235923998896592
"2856",0
"2857",2.8452652967248e-05
"2858",0
"2859",0
"2860",0.267019738544515
"2861",1.93602475817567e-05
"2862",2.32385355958264e-06
"2863",0
"2864",6.66133814775094e-16
"2865",0
"2866",0
"2867",0
"2868",0
"2869",0
"2870",0
"2871",0
"2872",0
"2873",0
"2874",0
"2875",0
"2876",0
"2877",0.314986519510854
"2878",6.57061849373974e-10
"2879",0.0133976023766791
"2880",0.0530688433086407
"2881",0.000220242491864253
"2882",0
"2883",0
"2884",0
"2885",0
"2886",0
"2887",0
"2888",0
"2889",0
"2890",6.13218329892362e-07
"2891",1.78426162733558e-11
"2892",0
"2893",2.38800090812674e-11
"2894",0.0443951637169179
"2895",7.55698578658315e-06
"2896",0.000157161097643743
"2897",0.149449867348388
"2898",0.00223933610335691
"2899",0.00411910230601886
"2900",0.0136203458063726
"2901",1.11439849570516e-08
"2902",9.07691570383173e-05
"2903",0
"2904",1.19937393350256e-12
"2905",0.00836657711854694
"2906",0.00193530278398846
"2907",0.0202304128036273
"2908",1.5827042110228e-07
"2909",0.000239602517035586
"2910",9.92397275467738e-11
"2911",0
"2912",0
"2913",1.07517328373774e-10
"2914",7.85504090692335e-05
"2915",0.0195767818657641
"2916",0.056957175301605
"2917",0
"2918",0.00046597491269551
"2919",1.99517779961855e-05
"2920",0.0884386248250398
"2921",0
"2922",3.68980401788122e-11
"2923",0.000124592494422759
"2924",0.0125584245744832
"2925",0.0145501228267432
"2926",0.000448031175378061
"2927",0.0899872621485368
"2928",0.00230196942182936
"2929",0.00227719838801632
"2930",0
"2931",0.000353963712524497
"2932",0.0541252008817759
"2933",0.0368336203516637
"2934",1.93333384989058e-05
"2935",0
"2936",0
"2937",0
"2938",1.69408420624961e-09
"2939",7.07212066686225e-12
"2940",3.33066907387547e-16
"2941",0
"2942",0.04956667582145
"2943",0
"2944",2.22044604925031e-16
"2945",1.58036204456202e-07
"2946",0.00360646950063503
"2947",0
"2948",0.047994197836746
"2949",0
"2950",5.33948329994871e-10
"2951",9.09600011272937e-05
"2952",5.28654897635761e-12
"2953",0
"2954",0
"2955",4.22932413202126e-07
"2956",0.00464386124545602
"2957",0
"2958",0
"2959",0
"2960",0.248116796335376
"2961",4.20724823694263e-05
"2962",0
"2963",0
"2964",0.00932751037164614
"2965",0.00110146891822493
"2966",2.10709811820919e-08
"2967",2.28408170155348e-09
"2968",0.000250119354055167
"2969",0.397478094177101
"2970",0.00294973860210468
"2971",0.00148129067931468
"2972",0.149353481673429
"2973",0.00773952361994912
"2974",0
"2975",1.25165093256552e-06
"2976",4.57993524097811e-05
"2977",0
"2978",0.757105769064692
"2979",1.11022302462516e-15
"2980",0
"2981",1.65480906755278e-09
"2982",1.11022302462516e-16
"2983",0
"2984",0
"2985",0.0915948954739635
"2986",0.0017220584152452
"2987",0.764287473865461
"2988",0.00580209843698887
"2989",0.393138211889573
"2990",2.31930141758596e-10
"2991",0.148103644922454
"2992",0
"2993",0
"2994",4.32320845789036e-13
"2995",0
"2996",0
"2997",1.22124532708767e-15
"2998",6.57974781392845e-06
"2999",0.00167679060133041
"3000",1.59386652109905e-06
"3001",0
"3002",2.25930385511219e-13
"3003",0.00046687826957581
"3004",0.0857090295308407
"3005",5.34244373199266e-05
"3006",0
"3007",0
"3008",0.000615734163627257
"3009",5.23766585658336e-11
"3010",0
"3011",5.68433280445646e-08
"3012",6.58833839706219e-08
"3013",0
"3014",0.0143582643645525
"3015",1.9415576323345e-06
"3016",3.97982648059347e-07
"3017",6.18518334943863e-05
"3018",0.000288862977160687
"3019",2.29078279678774e-08
"3020",0.000471742659264307
"3021",0.0483736225845968
"3022",7.41512337023575e-05
"3023",2.62741455354654e-05
"3024",0.025446501099562
"3025",0
"3026",0
"3027",0
"3028",6.66133814775094e-16
"3029",1.54572066257685e-09
"3030",6.17374923406189e-07
"3031",0.0903774369691023
"3032",0
"3033",0
"3034",0
"3035",0
"3036",0
"3037",0
"3038",0
"3039",0
"3040",0
"3041",0
"3042",8.34188093135069e-06
"3043",1.0769163338864e-14
"3044",0
"3045",0
"3046",1.58373314462779e-12
"3047",0
"3048",2.97539770599542e-14
"3049",0.039974021021796
"3050",0
"3051",0
"3052",2.03944191190519e-06
"3053",2.96111642983377e-08
"3054",0.012482845509978
"3055",2.47604159397952e-10
"3056",0
"3057",0
"3058",0.0170115741152896
"3059",1.65312208366686e-12
"3060",0
"3061",0
"3062",0
"3063",2.87969648127273e-11
"3064",0
"3065",0
"3066",1.11022302462516e-16
"3067",0
"3068",0
"3069",1.11466391672366e-13
"3070",0.0327703431152281
"3071",0
"3072",1.94197797442897e-06
"3073",0.457991862846433
"3074",0.145303888908592
"3075",5.10702591327572e-15
"3076",0
"3077",0
"3078",0
"3079",0
"3080",0
"3081",0
"3082",0
"3083",1.05937680450197e-06
"3084",0
"3085",0
"3086",1.44687875014426e-08
"3087",0
"3088",0
"3089",0
"3090",0
"3091",0
"3092",0
"3093",0
"3094",0
"3095",0
"3096",0
"3097",0
"3098",0
"3099",0
"3100",0
"3101",0
"3102",0
"3103",0
"3104",0
"3105",0
"3106",0
"3107",0
"3108",0
"3109",0
"3110",0
"3111",0
"3112",1.11022302462516e-16
"3113",0
"3114",0
"3115",0
"3116",0
"3117",0
"3118",0
"3119",0
"3120",2.22044604925031e-16
"3121",1.14563303288406e-09
"3122",0
"3123",0
"3124",0
"3125",0.00015300416410402
"3126",0.000102661724630582
"3127",0.000149257049974261
"3128",0
"3129",0
"3130",0
"3131",0
"3132",0
"3133",0
"3134",0
"3135",0
"3136",0
"3137",2.22044604925031e-16
"3138",0.00264180139494041
"3139",1.01723941492438e-07
"3140",0
"3141",0.00687415724457596
"3142",0.0146240339325686
"3143",0
"3144",0
"3145",0
"3146",2.57498872224815e-08
"3147",0.00194670807941266
"3148",0.000540621288708021
"3149",3.90490526325227e-06
"3150",4.03894766091151e-05
"3151",0.285607631751504
"3152",3.99680288865056e-14
"3153",7.14317494043826e-13
"3154",0.143193648356366
"3155",1.76552661379503e-10
"3156",0.000635990114555507
"3157",4.12202436659292e-05
"3158",0.000488887747237876
"3159",0.426974404352426
"3160",0.252632122467238
"3161",0.145275101077929
"3162",0.0129664061718917
"3163",0.013445392948175
"3164",5.55111512312578e-16
"3165",0
"3166",0
"3167",2.98649993624167e-14
"3168",1.84995195979809e-05
"3169",0.0529886709227553
"3170",0.144686868646081
"3171",2.41752483032265e-07
"3172",9.09161634865541e-13
"3173",0
"3174",2.97778701696672e-09
"3175",0.0243825982923457
"3176",1.4060554109907e-07
"3177",0.00208905393589087
"3178",1.57667439193432e-06
"3179",0.281574808341879
"3180",2.6229686528545e-05
"3181",7.58495108610369e-07
"3182",0.0383142113346187
"3183",0.36030623108591
"3184",0.00551760171196369
"3185",0.00490299138915729
"3186",0
"3187",0
"3188",0.00366193867796505
"3189",5.69211344725318e-12
"3190",0
"3191",0
"3192",2.92575186300326e-10
"3193",2.58206456216215e-10
"3194",0.0469083693156743
"3195",0
"3196",0
"3197",0.00219254898489707
"3198",0
"3199",3.04398697703601e-06
"3200",0
"3201",0
"3202",0
"3203",0
"3204",0
"3205",0
"3206",0
"3207",0
"3208",0
"3209",0.0978678020390624
"3210",0.00273292251010526
"3211",0.0103120334108506
"3212",0
"3213",0.0269468983410586
"3214",9.59232693276135e-14
"3215",0.000226632493025569
"3216",0
"3217",2.22044604925031e-16
"3218",1.10386155820485e-05
"3219",0
"3220",0
"3221",3.51940698806175e-14
"3222",0
"3223",0
"3224",0
"3225",0
"3226",0
"3227",5.69392644145239e-09
"3228",2.62995531263854e-06
"3229",0.0468833658434025
"3230",4.42359260333092e-10
"3231",0
"3232",0.00240794066095096
"3233",0.0121781227652433
"3234",0.680813417262649
"3235",0.00022534689529774
"3236",3.80826305490523e-07
"3237",3.90410776707206e-07
"3238",0.540310945835352
"3239",0.0164193442661181
"3240",0
"3241",5.19663614118038e-05
"3242",0
"3243",9.38981081777257e-09
"3244",1.50213708915992e-07
"3245",0.442655488104598
"3246",0.434166601228351
"3247",0.067935416094614
"3248",0.000563082307004636
"3249",0
"3250",0
"3251",0
"3252",0
"3253",0
"3254",1.77970276871164e-06
"3255",0.00202311758192864
"3256",0.00501005607073879
"3257",0.000143728190980741
"3258",5.08837429968878e-08
"3259",0
"3260",0
"3261",0
"3262",0.00162792889676788
"3263",0.00893848055286139
"3264",0
"3265",0
"3266",7.7715611723761e-16
"3267",6.75364315935179e-05
"3268",0.00415208169413128
"3269",6.21431441860665e-08
"3270",0
"3271",0
"3272",0
"3273",0
"3274",0
"3275",0
"3276",8.69541170624988e-05
"3277",0
"3278",0.101280246774314
"3279",2.2761792450865e-12
"3280",0.0163067008702067
"3281",0
"3282",0
"3283",0.00192628225516467
"3284",0.000240823732710616
"3285",1.85471771830814e-05
"3286",2.62895940605912e-06
"3287",0
"3288",0.071386680294135
"3289",0.0141542993894712
"3290",2.85493850782359e-12
"3291",0
"3292",1.8147212288433e-08
"3293",0
"3294",0
"3295",0
"3296",0
"3297",0
"3298",0
"3299",0
"3300",0.00109924371412629
"3301",0
"3302",0
"3303",0
"3304",6.91635082539221e-10
"3305",0
"3306",0
"3307",0
"3308",0
"3309",0
"3310",0
"3311",0
"3312",0
"3313",0
"3314",0
"3315",0
"3316",0
"3317",0
"3318",0
"3319",0
"3320",0
"3321",0
"3322",0
"3323",0
"3324",0
"3325",0
"3326",0
"3327",6.69986275791956e-07
"3328",8.11866081029677e-08
"3329",0
"3330",8.44851046866157e-06
"3331",4.70490917159339e-06
"3332",0.00044941961288214
"3333",0
"3334",0
"3335",0
"3336",0
"3337",0
"3338",0
"3339",0
"3340",0
"3341",0
"3342",0
"3343",0
"3344",0
"3345",0
"3346",0
"3347",0
"3348",0
"3349",0
"3350",0
"3351",0
"3352",0
"3353",1.0591527654924e-13
"3354",0
"3355",0
"3356",5.12162304788788e-08
"3357",4.99450480972996e-09
"3358",0.00140837483073852
"3359",0
"3360",0.000544069404843195
"3361",0.0607359542885277
"3362",0
"3363",0
"3364",0.085791432398152
"3365",0
"3366",0
"3367",0.0161952912637955
"3368",0.000915991872129651
"3369",0
"3370",0
"3371",0.00296635140121548
"3372",0.0139256846647174
"3373",0.912971564518595
"3374",0
"3375",1.0286816887195e-07
"3376",0
"3377",2.22044604925031e-16
"3378",0
"3379",0.0463320017305812
"3380",0
"3381",0
"3382",4.91406915159587e-11
"3383",0.00442991280744309
"3384",0.720201824608059
"3385",0
"3386",0
"3387",0.961167414952543
"3388",0.000202795853058046
"3389",0.576092218547792
"3390",0.0137632424123588
"3391",0.188270624065663
"3392",0.0531670092334162
"3393",0.0214682816126979
"3394",1.858635745422e-06
"3395",0.0329482580186981
"3396",0
"3397",2.68766120470332e-11
"3398",1.27874661970395e-08
"3399",0.0273862813204572
"3400",0
"3401",1.67895697344989e-11
"3402",0
"3403",0.0871142879368556
"3404",1.54798689339097e-05
"3405",0.0367421447506642
"3406",0.186257124370491
"3407",0
"3408",5.90638649100583e-14
"3409",0.102033456150738
"3410",7.89848633497847e-07
"3411",0
"3412",0.0112004025174302
"3413",0
"3414",0
"3415",0.639092608073298
"3416",0.813399635912655
"3417",5.08490040662668e-06
"3418",0
"3419",3.84520707907843e-06
"3420",9.33364496802369e-13
"3421",3.17190718135407e-13
"3422",0.000150601937192629
"3423",3.20381505214407e-07
"3424",0
"3425",2.81776824095914e-11
"3426",0.014877846970489
"3427",0.00150719090495954
"3428",0.176091016616618
"3429",6.65835497848377e-10
"3430",0.00010784447018608
"3431",0.015630356223751
"3432",0.394699823319792
"3433",0.127494370143898
"3434",1.59681646206833e-05
"3435",0.0887097818006839
"3436",0.00640111119745701
"3437",0.161781179787867
"3438",0.00154059763292391
"3439",7.82988379466332e-07
"3440",0.0123192988684501
"3441",0
"3442",0.028116400766374
"3443",0
"3444",0
"3445",4.20577794180144e-06
"3446",7.88258347483861e-15
"3447",0
"3448",0
"3449",0.00112522555017769
"3450",0.00526702331531947
"3451",0.00147869649274912
"3452",0
"3453",3.68483021873089e-13
"3454",0
"3455",9.7105643526163e-09
"3456",0
"3457",9.30233667872926e-12
"3458",0
"3459",0
"3460",0
"3461",1.14352971536391e-14
"3462",0
"3463",0
"3464",9.2148511043888e-15
"3465",0
"3466",0
"3467",5.73418363791767e-07
"3468",0.00612816675269456
"3469",0.0869817851505754
"3470",0.00344169344968903
"3471",6.02073946254222e-13
"3472",0
"3473",0
"3474",0
"3475",0
"3476",4.69946304093583e-12
"3477",0
"3478",0
"3479",0
"3480",0
"3481",0
"3482",0
"3483",0
"3484",0
"3485",0
"3486",0
"3487",0
"3488",0
"3489",0
"3490",0
"3491",0
"3492",0
"3493",0
"3494",0
"3495",0
"3496",0
"3497",0
"3498",0
"3499",0
"3500",0
"3501",0
"3502",0
"3503",0
"3504",0
"3505",0
"3506",0
"3507",0
"3508",0
"3509",0
"3510",0
"3511",0
"3512",0
"3513",2.08044692584508e-12
"3514",0
"3515",0
"3516",0
"3517",0
"3518",0
"3519",0
"3520",0
"3521",0.000294020175570009
"3522",0
"3523",0
"3524",0
"3525",0
"3526",4.11217482287896e-09
"3527",0
"3528",0
"3529",0.00676759603730526
"3530",0
"3531",0
"3532",0
"3533",0
"3534",0
"3535",0
"3536",0
"3537",0
"3538",0
"3539",2.10856787585811e-09
"3540",0
"3541",0
"3542",0
"3543",0
"3544",0
"3545",0
"3546",0
"3547",0
"3548",0.000205907040560782
"3549",0
"3550",2.22126669241485e-05
"3551",0
"3552",0
"3553",0
"3554",0
"3555",0
"3556",0
"3557",0
"3558",9.58121073202367e-06
"3559",0
"3560",0
"3561",0
"3562",0
"3563",0
"3564",0
"3565",0
"3566",0
"3567",0
"3568",0
"3569",1.46203350870344e-07
"3570",0
"3571",0
"3572",0
"3573",0
"3574",0
"3575",0
"3576",0
"3577",0
"3578",2.23288054712611e-12
"3579",0
"3580",0
"3581",0
"3582",0
"3583",0
"3584",0
"3585",0
"3586",3.63212930842849e-08
"3587",0
"3588",0
"3589",0
"3590",0
"3591",0
"3592",0
"3593",0
"3594",0
"3595",0
"3596",0
"3597",0.000599246457776426
"3598",0
"3599",0
"3600",0
"3601",0
"3602",0
"3603",0
"3604",0
"3605",0
"3606",0
"3607",0
"3608",0
"3609",0
"3610",0
"3611",0
"3612",0
"3613",0
"3614",0
"3615",0
"3616",0
"3617",0
"3618",0
"3619",0
"3620",0
"3621",0
"3622",0
"3623",0
