"","x"
"1",0
"2",0
"3",0
"4",0
"5",0
"6",0
"7",0
"8",0
"9",0
"10",0
"11",0
"12",0
"13",0
"14",0
"15",0
"16",0
"17",0.198169807799875
"18",0
"19",6.13908923696727e-12
"20",0.00336796212909951
"21",0
"22",0.129527730446809
"23",0
"24",0
"25",2.66296984463565e-11
"26",0
"27",0
"28",0.745428130652238
"29",0
"30",0.00032166210390927
"31",0.0849978791759474
"32",0
"33",0
"34",0
"35",2.72559752545476e-12
"36",0.0577888724534145
"37",2.75922142137786e-05
"38",0.0537370226333006
"39",0.000423193352159568
"40",0
"41",0
"42",0
"43",0
"44",0
"45",0
"46",0
"47",0
"48",0.0431743936447855
"49",0.00409633654284491
"50",4.4610981575488e-12
"51",0
"52",0
"53",5.01043651013333e-13
"54",0.0232324224179092
"55",0
"56",0
"57",0.805555224634395
"58",0
"59",0
"60",0
"61",0.240258709995327
"62",2.97737169363543e-08
"63",0.23821934952255
"64",0.0414543403843441
"65",8.09211586627612e-11
"66",0.333050740016765
"67",2.31902930192263e-08
"68",4.37100799999257e-10
"69",0.125990424716555
"70",0
"71",2.85757972839917e-10
"72",0.835780099097118
"73",0.000832648385244439
"74",0.015637983146402
"75",0
"76",0.105522249568244
"77",0
"78",0.29576525164573
"79",0.0989569303937022
"80",0
"81",0
"82",0
"83",0
"84",0.000303924154367863
"85",0
"86",0
"87",0.00917266991794519
"88",0.0070562557665329
"89",0
"90",0
"91",3.91254574017008e-06
"92",1.16063468835748e-08
"93",3.9815163144219e-07
"94",1.42441614059408e-13
"95",0
"96",0
"97",0
"98",0
"99",0
"100",0
"101",0
"102",0.00767927623439246
"103",5.55111512312578e-15
"104",0
"105",0
"106",5.26800825184637e-13
"107",0
"108",3.57964358155272e-09
"109",0
"110",2.05259143015724e-11
"111",0
"112",1.11352882437021e-06
"113",0
"114",0.000165985350460529
"115",0
"116",0.00856646219816748
"117",0
"118",0.422484149052695
"119",0.095303952159248
"120",0
"121",0
"122",0
"123",0
"124",0
"125",2.76217937411616e-11
"126",0
"127",0.0154673247450597
"128",0.0112348261818299
"129",1.1829426327381e-12
"130",0
"131",0
"132",0
"133",0
"134",0
"135",0
"136",0
"137",0
"138",0.991476182923511
"139",0
"140",0
"141",0
"142",0
"143",0
"144",4.20108392518159e-13
"145",0
"146",0
"147",0
"148",0.0147604118002129
"149",0
"150",0
"151",3.37756726476179e-07
"152",0.0013100079775602
"153",0
"154",0
"155",0.0659130211453833
"156",0
"157",0.0107814783772222
"158",1.69804896862358e-05
"159",0.000126267843035266
"160",0.000152007004444177
"161",0.0012204647945161
"162",7.10816477722531e-06
"163",0.104144792997404
"164",2.47162069699769e-08
"165",0.0521864614640175
"166",0
"167",0
"168",1.30893074157257e-11
"169",0.0177138309983903
"170",0
"171",0
"172",0
"173",0.499965360715403
"174",0.893397112124818
"175",0.000348062853779196
"176",0.0117909814279633
"177",0.66808552757773
"178",0.261996000139068
"179",0.0176224339859047
"180",5.54879031611222e-10
"181",0
"182",0.031828851072213
"183",2.75567679786093e-10
"184",0
"185",0
"186",0
"187",0.0221165018259661
"188",0
"189",0
"190",0
"191",2.44249065417534e-15
"192",0.704259967522072
"193",2.93256473404835e-06
"194",0
"195",3.98680833203491e-05
"196",0
"197",0.00169057577285625
"198",0.000535682295032647
"199",4.96271112770952e-06
"200",1.71656955316735e-09
"201",0.0533930674341081
"202",0
"203",0
"204",0.846153252565011
"205",0
"206",0
"207",0
"208",0.000219597750265699
"209",0.000134066688782575
"210",0.220257728392457
"211",0.131254403151893
"212",1.10470393694939e-05
"213",0.000631672725232346
"214",0.0208737269124945
"215",0
"216",0
"217",0
"218",0
"219",0.0107664321117268
"220",0
"221",0
"222",0
"223",2.50532927736913e-12
"224",0
"225",0.00502309823517855
"226",0.144551413665676
"227",0.149784440255424
"228",0.102386957499667
"229",0.000528420539634977
"230",3.12748950181962e-07
"231",0
"232",0
"233",0
"234",0
"235",0
"236",0
"237",6.61580739409473e-05
"238",1.50318429381624e-06
"239",0.322986545232006
"240",0.130060065423751
"241",0.135368696957634
"242",0.286038897839337
"243",0
"244",0
"245",0
"246",0.621299430439528
"247",0.630999889412399
"248",0
"249",1.47659662275146e-14
"250",0
"251",0
"252",0
"253",0
"254",0
"255",0
"256",0
"257",0.0269800773843168
"258",0.604395493500598
"259",0.329104518739649
"260",0.281721625893811
"261",0
"262",0.596209379805483
"263",0.596271897492679
"264",0.271831487312014
"265",0.135809305130773
"266",0.0129394950403462
"267",0.0288503361295912
"268",0.669104367016156
"269",0.79392046072438
"270",0.267770560266278
"271",0.0213247484152768
"272",0.893814982903094
"273",0.964807744432256
"274",0
"275",0.122912208172942
"276",0.866063461585618
"277",0
"278",0
"279",0
"280",0
"281",0
"282",0
"283",0
"284",0.17318609585754
"285",0.00236311726377736
"286",0
"287",0.00329789909582567
"288",0
"289",0.387854829575026
"290",0.647793862773482
"291",0
"292",0
"293",0
"294",0.000651946225704192
"295",4.30498758863251e-09
"296",0
"297",0.0200898827799533
"298",0.0795962471942345
"299",0.000878535061235697
"300",0.129166457726538
"301",0.134885652946462
"302",0
"303",0.471781973077137
"304",0.00478434708060205
"305",0.882121407031941
"306",0.742594843671017
"307",0.0287617356599233
"308",0.0252824507828999
"309",0.253091859092317
"310",0
"311",0.0627398967020015
"312",0.0787568776974503
"313",6.65023591750469e-14
"314",0.0434076745743359
"315",0.0400551192565272
"316",0.00935685757913829
"317",0.00169722731490918
"318",0.888509960708097
"319",0
"320",0
"321",0.316247857378851
"322",0.819828105110748
"323",0.0247968476859939
"324",0.360558894262527
"325",0
"326",0.0277340205705494
"327",0.73549745142154
"328",0.078970536018046
"329",0.229270858645996
"330",0.226823911873416
"331",0.0397012577088131
"332",0.255399819920307
"333",0.0630675085419076
"334",0.425917853158332
"335",0.00026129544852449
"336",0.739355515633674
"337",0
"338",5.5634735707244e-09
"339",6.66133814775094e-15
"340",0
"341",0.124851045558064
"342",0.416984563255481
"343",0.928167173371066
"344",0
"345",0.0082168384598722
"346",0.00590373943401978
"347",0.125475438471652
"348",0.589652602732471
"349",3.70813006027593e-05
"350",0.0688261801314338
"351",0.000615466101558049
"352",0.030533850155976
"353",0.00602222905385252
"354",0.0395010457318884
"355",0.18553201450194
"356",0.00126676089411604
"357",0.139377443129756
"358",0.656289590363138
"359",0.668799330440448
"360",0.479035413468627
"361",0.237279130090675
"362",0.2687234540783
"363",8.9731555519279e-12
"364",0.399547484923532
"365",0.228482666755564
"366",0.461578592572652
"367",0
"368",0.222419156323585
"369",0.0937328925519119
"370",0.0514101698472312
"371",0
"372",0
"373",0.053934431531345
"374",0.149916761117149
"375",0.084844528413043
"376",0.0467064746214247
"377",0.184205184107184
"378",0.0688168543767249
"379",0.0924529763969298
"380",0
"381",0
"382",0.771380973929363
"383",0.302764328856292
"384",0.586047538166686
"385",0.258411186472764
"386",0.0617094872663558
"387",0.118283047211988
"388",0.172532614732183
"389",0.24710582297816
"390",0.138125222200191
"391",0.509269020499088
"392",0
"393",0
"394",1.11022302462516e-16
"395",0.859772284617861
"396",0.490545589984201
"397",0.00597923589571137
"398",0
"399",0.134113431983992
"400",0.437852474124444
"401",4.05686595428278e-12
"402",0
"403",0.113751801441824
"404",0.68160915097278
"405",0.165814506678084
"406",0
"407",0
"408",0.0800447238468447
"409",0.244438720968832
"410",0
"411",0.832890923162705
"412",0.158190055475081
"413",0
"414",0.0741217959696112
"415",0.136488178315783
"416",0.00353615011958042
"417",0.139385096437658
"418",0.0687369349141815
"419",0.426485595679558
"420",0.000128601859689215
"421",0.372277931215949
"422",0.494263848142198
"423",0.285158830933434
"424",0.0663602048618523
"425",0.451996583550831
"426",0.383484965291571
"427",0.528367152552428
"428",0.866421712874361
"429",0
"430",1.19990376634682e-06
"431",0.000173242539810325
"432",0.120896610001398
"433",0.0290071216756319
"434",0
"435",0.161773475201602
"436",0.269001097513159
"437",0.373508091117921
"438",0.262191254510886
"439",0.0751553678500955
"440",0.0266479558736267
"441",0.791039681589896
"442",0
"443",0
"444",0
"445",0.14837245472612
"446",0.0159626215066392
"447",0
"448",0.0605456733202586
"449",0.209450875577644
"450",0.541547883634258
"451",9.2246210670055e-12
"452",0.719548166904581
"453",0.00945956037157381
"454",0.331203357119578
"455",0
"456",0
"457",0.160139665955389
"458",0.232392428581884
"459",8.34741420064899e-05
"460",1.00162594884878e-08
"461",0.352047106859356
"462",0.261148375656841
"463",0.0462369375756057
"464",0.199205896405942
"465",0.185902410914671
"466",0.231322837879748
"467",0.0462160425785789
"468",0.0142825733653736
"469",0.459247463507257
"470",0.0667085152265976
"471",0.712957991460329
"472",0
"473",0.0573207790060271
"474",0.821471369020706
"475",0.680917200741823
"476",0.855616411443153
"477",0
"478",0.00111801322979399
"479",0.168343740723147
"480",0.912923008697438
"481",0.605758596748398
"482",0.0666636909951103
"483",0.186683656774273
"484",0.272868830817196
"485",0.642390557580867
"486",0.280591135048168
"487",0.00340696113115591
"488",2.39586128714109e-13
"489",0
"490",1.92118376762807e-09
"491",0.0653837711993153
"492",0
"493",0.00988923962314237
"494",0.0399118642462333
"495",0.239992847544334
"496",0.0013085277259044
"497",0.007553855669022
"498",0.163450769891736
"499",6.52488762867831e-05
"500",0.000488481006522989
"501",0.0415552562915109
"502",0.0179095374629645
"503",1.35397604239529e-09
"504",0.0255910579583848
"505",0
"506",3.98933827594483e-06
"507",1.90795176193692e-05
"508",0.876122620579477
"509",1.84236051702369e-05
"510",0
"511",0
"512",0
"513",0
"514",0.0992503230749113
"515",0.00330873324475001
"516",0.42918627677735
"517",0.561610259703121
"518",0.323446453991339
"519",0.000524398927988834
"520",0.662999763124742
"521",0.463395718511498
"522",0.37983678123391
"523",0.36613287820468
"524",0.00594064286642138
"525",0.0107485614841495
"526",0.0901908542082231
"527",0.00423549675999746
"528",0.444820393142862
"529",0.0384085187673103
"530",0.0748424684644495
"531",0.0938357358798786
"532",0.674423798499808
"533",0
"534",0.625327581563261
"535",0.585882292804613
"536",0.0522268514003067
"537",0.155243535464629
"538",0.000418181838863108
"539",0.360002085213953
"540",0.123979028651893
"541",0.138729698225015
"542",0.420637384548423
"543",0.695336723445529
"544",0.166438351215897
"545",0.0295223102959914
"546",0.0154587997957122
"547",3.7170059608016e-07
"548",0.0476866904838666
"549",0.0960917092502978
"550",0.993341668339835
"551",0.112834487666918
"552",0.252374511726982
"553",0
"554",0.453014048776392
"555",0.367630317250417
"556",0.0443539590362502
"557",0.00600080867199992
"558",0.853501963232287
"559",0
"560",0.0224581656942351
"561",0.506023380544495
"562",0
"563",0.994290882015733
"564",0.0728903239753149
"565",0
"566",0.535122376776156
"567",0.00879884265632203
"568",0.22461450674972
"569",0.00225651228218759
"570",0.155146663643696
"571",0.081873830590929
"572",0.00722795407360366
"573",0.813965029318368
"574",0.0132623632290692
"575",0.0326311814482523
"576",0.370665376470004
"577",4.84058482541627e-06
"578",0.31998580543338
"579",0.0661802536254735
"580",0.00115392149416027
"581",0.0183557108281112
"582",2.6592839041939e-11
"583",1.57257429300728e-10
"584",0
"585",0.340835443153291
"586",0.21668572836883
"587",0.06752709297212
"588",0.0206604643480747
"589",0.0293853930228137
"590",0
"591",0
"592",0.580287961453909
"593",0.201316905045345
"594",0.950411894453877
"595",0.926077114566555
"596",0
"597",0.113420032124283
"598",0.000987800160633046
"599",0.857352912870656
"600",0.0976283701983506
"601",0.0131539038188819
"602",0.0795648793565773
"603",0.442165823114673
"604",0.00701839581707364
"605",0.41910817840694
"606",0
"607",0.266306788042139
"608",0.3690874344929
"609",0.917030906272724
"610",0.845163280023809
"611",0
"612",0.064723285577551
"613",0.0827543362053257
"614",0.351886404046108
"615",0.000232455910064155
"616",0.424662858209214
"617",0.000651789923969193
"618",0.00266424005773946
"619",0.0372903526044226
"620",0.059235889367364
"621",0.0234603664377545
"622",0.523448788195865
"623",9.13951607839358e-07
"624",0.414948585745376
"625",0.361388102751674
"626",0.424620930049829
"627",0.360933297817708
"628",0.553941584123586
"629",4.78174724816149e-06
"630",0.02125141941703
"631",0.161169299630576
"632",0.0400572781011281
"633",0
"634",0.589798551432419
"635",0.555660587803672
"636",0.103838991365466
"637",0.0902508623112145
"638",0.418476385787478
"639",0.00839755278210075
"640",0.17033924316194
"641",0
"642",3.99233820045364e-05
"643",0.000281766271931549
"644",0.0134131107004185
"645",0.630128406477644
"646",0.000182324036843262
"647",0.539274497142697
"648",0
"649",0.001779371370632
"650",0.53704348848881
"651",4.67244993218596e-06
"652",0
"653",0.85560144545147
"654",0.251878329660116
"655",0
"656",0.0802631089451785
"657",0.427574506549932
"658",0.0161831585027027
"659",0
"660",0
"661",0
"662",0
"663",0
"664",0
"665",0
"666",4.95126162292081e-12
"667",0.000589168080339486
"668",0.383764639238076
"669",0
"670",0
"671",3.21193072139181e-11
"672",0
"673",0.01096391591824
"674",0.0293894207781974
"675",0
"676",0
"677",0.00315868235858374
"678",0.0169782280512234
"679",3.80686948631137e-09
"680",0.157500236085265
"681",0.580224666984351
"682",8.99280649946377e-15
"683",0
"684",0
"685",0.314034505357409
"686",1.75783323452805e-07
"687",0.48973214191886
"688",0.0593056926782162
"689",0.254071320934105
"690",0.062805992077499
"691",0.0312775770569049
"692",0.209164949878431
"693",0
"694",0.00879087394158118
"695",0.0516728529609515
"696",0.00427258777492046
"697",0.106305912623365
"698",0
"699",0.131658139119041
"700",0
"701",0.00742852625860668
"702",0.0573697819316281
"703",0.468551253746721
"704",0.645681688578872
"705",0.000835960707459282
"706",0.00132685112693964
"707",0.000291633477286557
"708",0.00420295223539657
"709",0.0114074598737876
"710",0.0320223491872687
"711",0
"712",0.0460197815488804
"713",0.0398507632243613
"714",0.000242448997007538
"715",0.169795103266176
"716",0.0494868647045524
"717",0.617392367975816
"718",0.890284830109694
"719",0.169080888772084
"720",0.274986597175788
"721",0.00349048107701333
"722",0.209749041525787
"723",2.38235065563863e-07
"724",0
"725",0.0738117549344894
"726",0
"727",0
"728",0
"729",0
"730",0
"731",2.22044604925031e-16
"732",0
"733",0
"734",0
"735",0
"736",1.78335124445539e-12
"737",0
"738",0.154441850779147
"739",0.544539697930046
"740",0.0325794720741704
"741",0.0521653596867734
"742",0.400099114630544
"743",0.0650257659958148
"744",0
"745",0.00385853827684013
"746",0
"747",0.000238183570959949
"748",0
"749",0.436020105226263
"750",1.92823534916897e-12
"751",1.57083744173336e-05
"752",0.722214536952273
"753",0.00385132139875222
"754",4.71021420770379e-05
"755",0.015967843301497
"756",0.0181142330272392
"757",0
"758",0.00725991923595393
"759",0.215326564792234
"760",0.057416938324046
"761",0.231489398554271
"762",0.110890223712496
"763",0
"764",0
"765",0
"766",0.000838512893666765
"767",0.122554206083553
"768",0
"769",0.0648219646778413
"770",0
"771",0.546803117611886
"772",0.00219864690960725
"773",0.197724953570234
"774",0.228732633361089
"775",0.758707842312313
"776",0.214325268396288
"777",0.275410677646003
"778",0.169489650988222
"779",2.15112771305703e-05
"780",0.0966210809395628
"781",0
"782",0
"783",0
"784",0.000349553323543361
"785",0
"786",0
"787",0.000518400398134666
"788",6.66133814775094e-15
"789",0
"790",0
"791",0
"792",0
"793",0
"794",0
"795",0
"796",0.0185017377372876
"797",0
"798",1.70539999166941e-06
"799",0
"800",0
"801",4.03095380441254e-06
"802",1.62846264717409e-06
"803",0.00240856216306529
"804",0.01947366182819
"805",0.00433382844252406
"806",0
"807",0.1727613486415
"808",0.13969392906311
"809",0.000346766574610968
"810",0.928281290454038
"811",0
"812",0.00816287559135243
"813",0.904869162683466
"814",0
"815",0.311718451935684
"816",0.000318383903013864
"817",0.502919726580324
"818",0.517205088131552
"819",0.659267164913477
"820",0.380761010729046
"821",0.990361078549577
"822",0.991623308727264
"823",0.544676578238259
"824",5.4714474618911e-05
"825",0.0850848827889645
"826",0.33418983427786
"827",0.234080158993295
"828",0.731291198389326
"829",0
"830",0
"831",0
"832",0
"833",0
"834",0
"835",0
"836",0
"837",0
"838",0
"839",0
"840",0.101053463464921
"841",0.103923467347081
"842",0
"843",1.87183601951801e-13
"844",0.872822594677684
"845",0
"846",0
"847",0.00110142582955997
"848",0.000371300366687422
"849",0.297262143268991
"850",0.150951115714655
"851",0
"852",0.00288042907905317
"853",0
"854",0.394776493410992
"855",0.0563236948865947
"856",0.254359690955991
"857",0.277365793101552
"858",0.0981590646728769
"859",0.370339627067402
"860",0.386652395767739
"861",0.587682032788649
"862",0.74717280134383
"863",0.585562455673094
"864",0.548772188001766
"865",0.461326826385061
"866",1.12354570092066e-13
"867",0.0147163107412819
"868",0
"869",0.234236998365919
"870",0.168937243168365
"871",0
"872",0.0313924676219219
"873",0
"874",0
"875",0.691017642126501
"876",0.0990571434678241
"877",0.238700139173963
"878",0
"879",0.246644868778771
"880",0.851398390808864
"881",0.571537649628357
"882",0.0340752385960533
"883",6.08579853178526e-12
"884",0
"885",0.260659557578058
"886",0.0054694551380281
"887",0.0720714226581298
"888",0.907916620098739
"889",3.09641201567956e-12
"890",0.414813934610448
"891",0.731319389800644
"892",0
"893",0
"894",0.896161694620015
"895",0
"896",5.55111512312578e-16
"897",0.880852941662121
"898",0.733073006261961
"899",0
"900",0.425834600403259
"901",0.138994835848401
"902",0.104778877282396
"903",0
"904",0.000390016109639846
"905",0
"906",1.95957883253328e-09
"907",0.190715580507045
"908",0.662751015087481
"909",0.58879137457024
"910",0.023524056559032
"911",0.00425078230600728
"912",0.121151358914568
"913",0.363166865393304
"914",0
"915",0.334701400800469
"916",0.029087290269597
"917",0
"918",0
"919",0
"920",0.257072566163711
"921",0.31990694592543
"922",0.244494445990711
"923",0.0158450897522351
"924",0.756680580094336
"925",0.100554288888923
"926",0.00585243217057441
"927",0
"928",0
"929",0.242141121414074
"930",0.546996888531811
"931",0.250604827814459
"932",0.285840088447165
"933",0
"934",0.0577128555272216
"935",0.0250262868452562
"936",0.353206981302869
"937",0.835310333685237
"938",0.757712094408383
"939",0.0230791193750141
"940",0.219426962077507
"941",0.0386719553477426
"942",0.923375252500605
"943",0.059463556736124
"944",0.783781331095279
"945",0.333765467393208
"946",0.799978165536918
"947",6.85130663313771e-08
"948",0.83750669358306
"949",0.00157741574859438
"950",0.181947201907605
"951",0.28083920204392
"952",0.52835285428024
"953",0.30808002179859
"954",0.356114109382402
"955",0
"956",0.0527934922013674
"957",0.532947610647159
"958",0.714645191946269
"959",0.158585645377963
"960",0
"961",0.547162251823305
"962",0.309571496139601
"963",3.80806497446429e-14
"964",0.471772427895696
"965",0.980412545768109
"966",0.0989623296543783
"967",0.114731819878679
"968",0
"969",0.954873433591996
"970",0.191763060023649
"971",0.422525515268026
"972",0.931297694970282
"973",0.667374506984258
"974",0.108120248745225
"975",0.3734017702061
"976",0.67969598308046
"977",0.0694927178074416
"978",0.300495367895669
"979",0.0647491437869131
"980",0
"981",0.203005243354821
"982",0.000387693291876046
"983",2.17978807115493e-07
"984",0.145303674705522
"985",0.031340523910046
"986",0
"987",0
"988",0.692696865653741
"989",0
"990",2.58718032664085e-07
"991",0.000309477331458252
"992",1.52926229457506e-08
"993",0.00129808507846119
"994",0
"995",2.00844249009791e-08
"996",0
"997",2.82071998503053e-06
"998",4.4904120546807e-05
"999",3.13586678846178e-09
"1000",0.0108059075663142
"1001",0
"1002",0
"1003",0
"1004",0
"1005",4.87516060632132e-07
"1006",0
"1007",0
"1008",3.10377016088381e-07
"1009",0.0022841996552222
"1010",0
"1011",0.00427334634549525
"1012",0.0643761956651423
"1013",0.00427519013206168
"1014",4.47697212635489e-10
"1015",0.468106983100742
"1016",0.0715432895040212
"1017",0.0592179126853978
"1018",0.00486911874964291
"1019",0
"1020",3.83787601032637e-06
"1021",0.111026173942438
"1022",0.00349663794520683
"1023",0.0177166085204582
"1024",0.107303355500483
"1025",0.750916019738725
"1026",0.973756996755922
"1027",0.746806113784434
"1028",0
"1029",0.00774528848065792
"1030",0
"1031",0
"1032",8.75484129636561e-11
"1033",0.0481165776305842
"1034",0.377516605581742
"1035",0.000695120742311151
"1036",0.827754448997152
"1037",0.0151871854792313
"1038",0.913332786274944
"1039",0.653875122772739
"1040",0.0874403163453453
"1041",0.704512067874225
"1042",0.0103782871763528
"1043",0.0259009938735515
"1044",0.505393329976845
"1045",0.0766479271426188
"1046",0
"1047",0
"1048",0
"1049",0
"1050",5.6621374255883e-15
"1051",0
"1052",0
"1053",0
"1054",0
"1055",0.16301031837647
"1056",0.456859633056953
"1057",0
"1058",0.548017396719875
"1059",0.0691241501623163
"1060",0
"1061",0.0190982718295267
"1062",0.655040846612701
"1063",0.15306807125655
"1064",0.977703450386627
"1065",0.281244958275639
"1066",0.40185980286974
"1067",0.489960071862261
"1068",0.563295844563571
"1069",0.545042900466949
"1070",0.0171107236623785
"1071",0.877084032398922
"1072",0.987670796481844
"1073",0.477529050118217
"1074",0.00678026392337416
"1075",0.785986113458636
"1076",0.870572644834812
"1077",2.1008306205772e-11
"1078",0.043346200295916
"1079",0.000458532226187636
"1080",0.29217547501342
"1081",0.00198828321504307
"1082",0.0862042464628608
"1083",0.0424321688425535
"1084",0.485986127245961
"1085",0
"1086",0.261944203374461
"1087",0.572346270164961
"1088",0.000121235306327239
"1089",0.130796362911258
"1090",0.150158037532507
"1091",0.284925147446932
"1092",0.279617968205542
"1093",0.100535354930562
"1094",0.226976269380613
"1095",0
"1096",0.0215537384856022
"1097",0.0646923712007647
"1098",0
"1099",0.332329763383222
"1100",0.00200586153205273
"1101",0.465578090574236
"1102",0.23431431083872
"1103",0.674837055578662
"1104",0.197521253408648
"1105",0
"1106",0.501001554759031
"1107",0.000348856312570089
"1108",0
"1109",0.0178869595068372
"1110",0.0415639610750498
"1111",0.394825153316932
"1112",8.21298584696706e-11
"1113",0.0676278213144976
"1114",0
"1115",0
"1116",0.27538516022824
"1117",0.0126027260362157
"1118",0.911920020267048
"1119",0.111396110865135
"1120",0.0461381130854112
"1121",0.0635279412748091
"1122",0.653103660630542
"1123",0.496450630689341
"1124",0
"1125",0
"1126",0.0582841168491922
"1127",0.092715779733369
"1128",0
"1129",0.0949537603163029
"1130",0.583829535821976
"1131",0.000222983894817785
"1132",0.0311808344879527
"1133",0
"1134",0.0600041673461055
"1135",3.43058914609173e-14
"1136",0.010919816468132
"1137",0.00138420666385586
"1138",0.676190981089834
"1139",0.037228378486293
"1140",0
"1141",0.0456710252677011
"1142",8.20847896543242e-07
"1143",0
"1144",0
"1145",0.615688986752872
"1146",0.320170919599801
"1147",0.00711592108755066
"1148",0.403954948786288
"1149",0.61654557693892
"1150",0.132162018769377
"1151",0.0326115019270914
"1152",0.0221604350271518
"1153",0.553326255805431
"1154",0.354446569141074
"1155",0
"1156",0.0181771450522338
"1157",0.112489712244112
"1158",0.872172523138593
"1159",0.470495425066652
"1160",0.0681943927136459
"1161",0
"1162",0.583944909792165
"1163",0.00969969776174595
"1164",0.1255919814403
"1165",1.11022302462516e-16
"1166",0.0018218468675163
"1167",0
"1168",0.00863469618404422
"1169",0.690334718232351
"1170",0.0601714237031714
"1171",0.274898262096725
"1172",0.0450138595639507
"1173",0.432795879807484
"1174",0.729403684421693
"1175",0.393664713108325
"1176",0.00410828518180706
"1177",0.084030763726488
"1178",0.00235487809984192
"1179",0.176537825871342
"1180",0.658718559295125
"1181",0.313843768836462
"1182",0.0137079189578811
"1183",0.659897539082327
"1184",0.0489000730622858
"1185",0
"1186",2.32281482159813e-07
"1187",0
"1188",0
"1189",0
"1190",1.59872115546023e-14
"1191",0
"1192",0.558844568226225
"1193",0
"1194",0.427356814637659
"1195",0
"1196",0.00477330453992197
"1197",0.817850260303701
"1198",0.0319310990901457
"1199",0.0800757784864093
"1200",0.318348292154789
"1201",0
"1202",0.213733107056812
"1203",0.742288312280292
"1204",0.247162341005392
"1205",0.534243058865321
"1206",0.933497386737615
"1207",0.0407696175914577
"1208",0.0620872011896147
"1209",0.0345646716831121
"1210",0.118532782129889
"1211",0.485036537129234
"1212",0.0906402606040144
"1213",0.0148429010623193
"1214",0.0641650668610179
"1215",0
"1216",0.000186483124763326
"1217",0.421160318456185
"1218",0
"1219",0
"1220",0.239606779512623
"1221",0.459213477694556
"1222",0.857111379896796
"1223",0
"1224",0.0139188476392782
"1225",0.575700371769399
"1226",3.95502196159914e-06
"1227",6.66133814775094e-16
"1228",0.33712576282528
"1229",0.930357627442676
"1230",0.326328983011164
"1231",0
"1232",0
"1233",5.18878373600984e-09
"1234",0.0165284762081135
"1235",3.31797792574307e-08
"1236",0
"1237",0
"1238",0
"1239",0
"1240",0
"1241",0.00850887708561787
"1242",0
"1243",0
"1244",0.000237487509043954
"1245",0.136713707961124
"1246",2.81627962173125e-07
"1247",0.518565458571297
"1248",0.200305237697004
"1249",3.57097172165588e-07
"1250",0
"1251",0
"1252",0.150554237493715
"1253",0.385212763699382
"1254",0
"1255",0
"1256",0.587217707594766
"1257",3.66630189542194e-05
"1258",0
"1259",0
"1260",0.0880465532626458
"1261",0.000200113819137648
"1262",0
"1263",0
"1264",0.0737916779170031
"1265",0
"1266",0
"1267",0.311265135234712
"1268",1.1535162938392e-05
"1269",0
"1270",0.0105521187384823
"1271",0.281334328540022
"1272",0.199297284631171
"1273",0
"1274",0
"1275",0
"1276",0
"1277",0.0193285620288448
"1278",0.155296255914196
"1279",0.00161185463904434
"1280",0.0344277380823033
"1281",1.86517468137026e-14
"1282",0.02641599011303
"1283",0.00272032830115398
"1284",0.848149494141311
"1285",0
"1286",0.0995185059563294
"1287",0
"1288",0
"1289",0.202626604137253
"1290",0.228923674742511
"1291",0.000565978892215879
"1292",0.125320240422416
"1293",0.00142699511319222
"1294",0.00249598200475598
"1295",0.637585662714619
"1296",0.075703273205483
"1297",0.200611427646425
"1298",0.0340936813692772
"1299",0.042846853788733
"1300",0.641276251322557
"1301",0.10511252186081
"1302",0.35332248471024
"1303",0
"1304",0
"1305",0
"1306",2.22044604925031e-16
"1307",0
"1308",2.76334510829201e-12
"1309",0.341958669482248
"1310",0.130588997068616
"1311",0
"1312",0
"1313",0
"1314",0
"1315",0
"1316",0
"1317",0
"1318",0
"1319",0.0157833195781849
"1320",0
"1321",0.507520760200654
"1322",0
"1323",0
"1324",0
"1325",0
"1326",0.0026600050536093
"1327",0.0165569659506373
"1328",0.0301087128419735
"1329",4.40611801943991e-06
"1330",0.221063685269938
"1331",0.00512697385673244
"1332",0.00114305578136298
"1333",2.02060590481778e-14
"1334",0
"1335",0.029731486371348
"1336",0.00642946995874971
"1337",0.442500639169895
"1338",0
"1339",0.0400955998431797
"1340",0.0611522475191133
"1341",0.652381852702073
"1342",0.796969163438564
"1343",0.0996674844184885
"1344",0.204147456563567
"1345",0
"1346",0.0950391855633264
"1347",0.0135523332493596
"1348",1.41331391034782e-13
"1349",0
"1350",0
"1351",0
"1352",0
"1353",0
"1354",0.125424942080836
"1355",0
"1356",0.000225214980985933
"1357",0.122724380859035
"1358",0
"1359",0
"1360",0.00293276473824788
"1361",2.46475262422052e-09
"1362",0.0217245561160437
"1363",0.0214467280976619
"1364",0.00023849844401802
"1365",0.369092549555623
"1366",0.0036315226462742
"1367",0
"1368",1.75744863106786e-10
"1369",0
"1370",3.3686365097374e-07
"1371",0
"1372",0.452725274969767
"1373",0.191035914931752
"1374",0
"1375",0
"1376",0.163870851414771
"1377",0.0842386720651915
"1378",0.345581998173085
"1379",0.0556128450409102
"1380",0.254857619023576
"1381",0.08185753062767
"1382",0.758156533381521
"1383",0
"1384",0
"1385",7.58846319115491e-11
"1386",0
"1387",0
"1388",0
"1389",0
"1390",8.46167580448309e-12
"1391",0
"1392",5.53021232585493e-07
"1393",0.113316006821062
"1394",0.261429182434491
"1395",0
"1396",0
"1397",0
"1398",0.329562757795541
"1399",0.0041168207670762
"1400",0.013931838624882
"1401",0
"1402",0
"1403",0
"1404",0
"1405",0.0159149364475718
"1406",0.253127552246602
"1407",0.081075461049813
"1408",0.172799428254313
"1409",0.868000578055084
"1410",0.152208260962544
"1411",6.99440505513849e-15
"1412",0.00340242384289891
"1413",0.000393410305826292
"1414",0.00878916912977101
"1415",8.93199694573799e-05
"1416",0
"1417",0.0065279534069983
"1418",2.22044604925031e-16
"1419",0.475148142924713
"1420",1.43548839481866e-10
"1421",0
"1422",0
"1423",0.0271559851924842
"1424",0.00271768524426463
"1425",0.168598733109739
"1426",0.625624151442726
"1427",0
"1428",0.731946161554119
"1429",0
"1430",0
"1431",0
"1432",0
"1433",0
"1434",9.00721892027612e-06
"1435",0.156263647145844
"1436",0.0841220839223937
"1437",0.38297732004957
"1438",0.346621472430523
"1439",0.377640382556748
"1440",0.154495142855212
"1441",0.0129992851149227
"1442",0
"1443",0
"1444",0
"1445",0
"1446",3.46156713280088e-05
"1447",0.444957116341969
"1448",0.00631646231389571
"1449",0.0535226306749571
"1450",0
"1451",0
"1452",0.14933079190934
"1453",0.00344241940581669
"1454",0.0208781809524121
"1455",0.403086884667001
"1456",0.363653582366686
"1457",0
"1458",0
"1459",0.324953401989171
"1460",0
"1461",0
"1462",0.1373758271352
"1463",0
"1464",0.312285317566021
"1465",0.0210749055139564
"1466",3.42061293190365e-06
"1467",0
"1468",0
"1469",0
"1470",0
"1471",3.76199071894234e-12
"1472",0
"1473",0
"1474",0.270516890370494
"1475",0
"1476",8.73743588902798e-06
"1477",0
"1478",2.41692221791823e-11
"1479",0.346978595039252
"1480",0.000247454908406608
"1481",0.10819736230014
"1482",0
"1483",0
"1484",0.151389911376145
"1485",0
"1486",6.65036180569345e-07
"1487",0
"1488",0
"1489",0
"1490",0.0886306587421088
"1491",0
"1492",0
"1493",0
"1494",0
"1495",0
"1496",0
"1497",0
"1498",0
"1499",0
"1500",0
"1501",0
"1502",0
"1503",0
"1504",0
"1505",0
"1506",0
"1507",0
"1508",0
"1509",8.24923873654626e-07
"1510",0
"1511",0
"1512",0
"1513",0
"1514",0
"1515",0
"1516",0
"1517",0
"1518",0
"1519",0
"1520",0
"1521",0.00182716382567749
"1522",0.0561445047753293
"1523",0.577588592102694
"1524",0.132047357857489
"1525",0.928089338107566
"1526",0.365878508460218
"1527",0
"1528",0
"1529",0
"1530",0
"1531",0.000262234669841321
"1532",0.734576067798498
"1533",0
"1534",1.76153040265525e-07
"1535",0.0207607160003223
"1536",0.241633669811652
"1537",0.548653291621625
"1538",0.683240260905435
"1539",0.460832041109087
"1540",0.00224906451620921
"1541",0
"1542",0.0011865403264617
"1543",0.091974512378276
"1544",0.314136928898239
"1545",0.0377608733697223
"1546",0.0625455981811929
"1547",0.325177804317782
"1548",0.215849552248911
"1549",0.0303231771184483
"1550",0.340533509428628
"1551",0.328692484256511
"1552",0.86627991470961
"1553",0
"1554",0
"1555",0.164358891809232
"1556",2.20164777733345e-05
"1557",0.778445757153161
"1558",3.66373598126302e-15
"1559",0.0790348050232552
"1560",0.420217801166169
"1561",0.443747188881157
"1562",0.00189355847969963
"1563",0
"1564",0
"1565",0.000833471442671763
"1566",0.647886184712669
"1567",0.616557891416522
"1568",0.0821120786565774
"1569",0.54101128065252
"1570",0.290093952816337
"1571",0.787326074144311
"1572",0.00293087171216577
"1573",0
"1574",0.00492903761425612
"1575",0.669442055949138
"1576",0.229651927444289
"1577",0.884744358240764
"1578",6.97671498350871e-07
"1579",0.1458851852996
"1580",0.262661373746484
"1581",3.21964677141295e-15
"1582",0.54973495018581
"1583",0.340574994350885
"1584",0.0601977208589805
"1585",0.253436400359996
"1586",0.817825202387952
"1587",0.086363074639593
"1588",0.0949667591055839
"1589",0.0458262489278656
"1590",0.857460764265822
"1591",0.181370791219211
"1592",0
"1593",0.479680942792124
"1594",0.763021845741688
"1595",0.195614717892456
"1596",0.0148867500453477
"1597",0.344929481104684
"1598",2.24303897677913e-08
"1599",0.378720582529473
"1600",0.0225798584385191
"1601",0.0004317160409405
"1602",0
"1603",3.86357612569554e-14
"1604",0
"1605",0.0723403400268224
"1606",0.00212721694341356
"1607",0
"1608",0.000194332658878693
"1609",0.0117958045993475
"1610",9.45910016980633e-14
"1611",0
"1612",0
"1613",0
"1614",0
"1615",0.810371627587398
"1616",0.0361530418105329
"1617",0.00633148589208599
"1618",0
"1619",6.98260354892177e-06
"1620",0.0252688643423458
"1621",0.39188286635032
"1622",4.51668258349969e-10
"1623",0.508338367879701
"1624",0.16260397718694
"1625",0.0956897998038186
"1626",0.00196863260318958
"1627",2.310529767513e-09
"1628",0
"1629",0.186558994459597
"1630",0.152541000845438
"1631",0
"1632",0.108520848641131
"1633",3.02067335589129e-08
"1634",0
"1635",4.69915782375097e-06
"1636",1.70715791474318e-05
"1637",0.593331910890077
"1638",0.125934590881178
"1639",0
"1640",0
"1641",0.119507994657471
"1642",2.7356306109283e-10
"1643",0.112909509402021
"1644",5.87781556108391e-05
"1645",0.32892555948277
"1646",0.667121805626991
"1647",3.89593727168069e-07
"1648",0.280709217682702
"1649",0.898954620839095
"1650",0
"1651",0
"1652",0
"1653",0.447978340644619
"1654",0.0240300382969217
"1655",0.0548716568673288
"1656",0.172183495991587
"1657",0.706512869372899
"1658",0
"1659",0.232229012115429
"1660",0.342512427462049
"1661",0.0359211409444786
"1662",0.879863351961899
"1663",0
"1664",0
"1665",0
"1666",0
"1667",0.0212671851311177
"1668",0
"1669",0.321815278980148
"1670",0.260522181793733
"1671",3.78668438185681e-05
"1672",0.118215473836408
"1673",0.0622686540650645
"1674",0.913584315887092
"1675",0.418273849230294
"1676",0.755635814500307
"1677",0
"1678",0
"1679",0.0281794663946373
"1680",0
"1681",0
"1682",0
"1683",0
"1684",0
"1685",0
"1686",0
"1687",0
"1688",3.15631853986531e-10
"1689",7.62470715229835e-05
"1690",0.000632242819680551
"1691",0.0028678301805557
"1692",0
"1693",0
"1694",0.000168340112590148
"1695",0
"1696",0
"1697",5.2346699839223e-06
"1698",0
"1699",0
"1700",4.3734573740295e-09
"1701",0.076794990972584
"1702",0
"1703",0
"1704",3.51649462881909e-08
"1705",0
"1706",0.0207969389145629
"1707",0
"1708",0
"1709",0.0739019312287529
"1710",0
"1711",0
"1712",0
"1713",1.27926308701731e-06
"1714",0
"1715",0.0467163922164565
"1716",0
"1717",0.028311582612237
"1718",0.32628552104298
"1719",0.0216741720869417
"1720",0.0126399517854464
"1721",0.000360622983242465
"1722",0.00266735932097584
"1723",0.00127457488782934
"1724",0.144232309698316
"1725",0.215762428346721
"1726",0.108492984978321
"1727",0.472893143227713
"1728",0.0201965893576189
"1729",0.00950941588796206
"1730",0.625670953028888
"1731",0.00630682956123185
"1732",0.958354922755268
"1733",0.000977735050299855
"1734",0.0415568298231632
"1735",0.00890008939570375
"1736",0.0993720156436202
"1737",0.0371704495386878
"1738",0
"1739",0.941107474087662
"1740",0.0308259890726114
"1741",0.00211412817645973
"1742",0.196342087965882
"1743",0.00396048313843023
"1744",2.6841312061876e-08
"1745",0.432784364998402
"1746",0
"1747",0.338785636950177
"1748",0
"1749",1.95732319241415e-13
"1750",0
"1751",0.00275394296806897
"1752",0.0230069580086473
"1753",0.775244428405984
"1754",0.27973369982389
"1755",0.586870883038816
"1756",0.421960384660348
"1757",0.134326204658992
"1758",0.218120319478703
"1759",0.680823342956536
"1760",0.454786052122184
"1761",0
"1762",0.448070157229913
"1763",0.457479631744961
"1764",0.063383693328727
"1765",0
"1766",0
"1767",0
"1768",0.632693121292426
"1769",0
"1770",0
"1771",0.0673355022898677
"1772",0.413917637579914
"1773",0
"1774",0.817327318689409
"1775",0.73659464018831
"1776",0.79186239637435
"1777",0.596219292825744
"1778",0.115164600228508
"1779",0.00377154102648047
"1780",0.152905171356505
"1781",0.65721995124645
"1782",0.558279088144989
"1783",0.58852703145723
"1784",0.0525250643640972
"1785",0.337530574821091
"1786",0.253425282356869
"1787",0.0252702474713659
"1788",0.534053587786203
"1789",0.0647345176574677
"1790",0.0909612184430557
"1791",0.00131314290045448
"1792",0.0212062983401714
"1793",0.226469882073492
"1794",0.0183911000443118
"1795",0.870915750081135
"1796",0.00641563586072258
"1797",0.00253728481455817
"1798",0.204882081282972
"1799",0.250393056013687
"1800",0
"1801",0.946393761016723
"1802",0
"1803",0
"1804",0
"1805",1.11022302462516e-16
"1806",5.65019888144613e-05
"1807",0
"1808",0.21330437450954
"1809",0
"1810",0
"1811",0.302222795645671
"1812",0.270514697146303
"1813",0.000233483610431295
"1814",0.150253551425536
"1815",0.03815331722154
"1816",0.70235954233324
"1817",0
"1818",0.190528247410336
"1819",0.27154872475734
"1820",0.144157873914133
"1821",0.608859160529909
"1822",0.00161347293192093
"1823",0.0098470669381977
"1824",0.0749251638229917
"1825",0.307463251860424
"1826",0.686416201980885
"1827",0.111308914083841
"1828",0
"1829",0.325618761426215
"1830",0.451548548493039
"1831",0.118179479677681
"1832",0.00611851311441836
"1833",0.00862608199851389
"1834",0.0421669120877913
"1835",1.14512288540425e-10
"1836",0
"1837",0.184773918041505
"1838",0.629371011131227
"1839",0.0914538339329483
"1840",0.0149139829126191
"1841",0.499049753487092
"1842",0.500153599376356
"1843",0
"1844",0
"1845",0.0866410319694875
"1846",0
"1847",0.411932229929891
"1848",0.0155913273429112
"1849",0.197670608344694
"1850",0.213169689514989
"1851",0.672117214341389
"1852",0.146765962882328
"1853",0.414807565851852
"1854",0.000153911891051739
"1855",0.012346381912177
"1856",0.0624193686551758
"1857",0.620036806528774
"1858",0.0550645476109353
"1859",0.283533263238923
"1860",0.286212819856529
"1861",0.193686617826969
"1862",0
"1863",0
"1864",0
"1865",0.000315718518714148
"1866",0.0644032195737271
"1867",1.59994428816645e-09
"1868",1.72141523258063e-09
"1869",1.328381848964e-11
"1870",0.0040761297478038
"1871",0.0560607729148604
"1872",0.0462956070350801
"1873",0
"1874",0.472796662651364
"1875",0.582839831845683
"1876",0
"1877",1.02208396087766e-05
"1878",1.55431223447522e-15
"1879",3.46769279957471e-11
"1880",0
"1881",1.08216634542302e-08
"1882",1.20655587743101e-08
"1883",0.334632993348652
"1884",0
"1885",0.000790290220047729
"1886",3.33066907387547e-16
"1887",0.0479027227424357
"1888",0
"1889",0
"1890",0
"1891",0
"1892",0
"1893",0
"1894",0.00305752921242863
"1895",0.000736247544449897
"1896",0
"1897",0
"1898",0
"1899",0
"1900",0
"1901",0.919589717368137
"1902",0
"1903",0.404982180363431
"1904",0.332039106137049
"1905",0
"1906",0
"1907",0.00631812327556103
"1908",3.76870643989946e-05
"1909",0.0249702729608514
"1910",0.524437630167421
"1911",0.00135591072660846
"1912",0.324254878878628
"1913",0.0842597739819138
"1914",0.0318095419371327
"1915",0
"1916",0.0461853566833723
"1917",0.331985152019332
"1918",0.0119826969707632
"1919",0.326282404555793
"1920",0.055892150620734
"1921",0.552313616883974
"1922",5.14017049202398e-06
"1923",0.166388116299211
"1924",0.270434904682409
"1925",0.0330049055601589
"1926",0.0108898032413861
"1927",0.489942201902819
"1928",0.00983326396798867
"1929",0.600084021607907
"1930",0.185354158492706
"1931",0.9810142870375
"1932",2.14180587931878e-06
"1933",0.376970877573226
"1934",0.0245110736618037
"1935",0.00768497498913756
"1936",0.0295211179248306
"1937",0
"1938",0.282942768176482
"1939",0
"1940",0
"1941",0
"1942",0
"1943",0
"1944",0
"1945",0
"1946",0
"1947",0.0016537208831624
"1948",0.0594803860136116
"1949",0.0112267414485275
"1950",0.00985497521293544
"1951",0.0278500674206701
"1952",0.357488601217585
"1953",0.57690413216629
"1954",0
"1955",0
"1956",0
"1957",0.00241812594526236
"1958",0
"1959",0.766395299866509
"1960",0.823288239901339
"1961",0.305544224425118
"1962",0.000335260177157681
"1963",0.789837813407344
"1964",0.0616451415586454
"1965",0.0213985904833262
"1966",0.732916103001822
"1967",0.54313209108164
"1968",2.07676031904747e-06
"1969",1.55163682458159e-07
"1970",0.14862915968302
"1971",0.0480937853207319
"1972",0
"1973",0.0904330011329354
"1974",0.226251453548779
"1975",0
"1976",0
"1977",0
"1978",0
"1979",0
"1980",0.00486256606276281
"1981",0.0099509870306681
"1982",0
"1983",0.539410522980621
"1984",0.00121500838138444
"1985",0.00923641280613208
"1986",0.00258625561651527
"1987",0.000855270429490074
"1988",0.414312352379699
"1989",0.760296593339378
"1990",0.0424580635583931
"1991",0.836620932978859
"1992",0.344080132656833
"1993",0.0305150445494616
"1994",0.122672193679731
"1995",0.050307964812691
"1996",0.000936758877030042
"1997",0.0360054746297874
"1998",0.263400270893952
"1999",0
"2000",0.212637073348318
"2001",0.873014321453179
"2002",0.404795073473243
"2003",0
"2004",0.149444666418702
"2005",0.914131796628713
"2006",0.00102643916446066
"2007",0.275626179177077
"2008",0.758170998224484
"2009",0.678044437186271
"2010",1.032679053381e-09
"2011",0
"2012",0
"2013",0.00394300227028821
"2014",0.277336162295935
"2015",0.111066891842693
"2016",0.756788142118194
"2017",0.550302863191604
"2018",0.227241747181767
"2019",0.505520498855968
"2020",0.084860148556491
"2021",0.374865433858795
"2022",0.541541530059993
"2023",0
"2024",0.289565286797823
"2025",0
"2026",0
"2027",1.09591336006076e-10
"2028",0.00824595091750147
"2029",0.00225455177581779
"2030",0.915077333834564
"2031",0.0192273220118175
"2032",0.145483581636148
"2033",0
"2034",0
"2035",0.0326315530478222
"2036",0.000119868602050044
"2037",0.379892338600966
"2038",0.00143096184517499
"2039",0
"2040",0.000519767691903872
"2041",0.280369988624381
"2042",0.245980779468379
"2043",0.903599352595883
"2044",0.461549910761258
"2045",0
"2046",0.00530899050086286
"2047",0
"2048",0
"2049",0.00515401901330548
"2050",0.0162127486121669
"2051",0.176261881638828
"2052",0.0712431157963591
"2053",0.111102810644683
"2054",3.99460030608978e-07
"2055",0.134712256518845
"2056",0
"2057",0
"2058",0
"2059",0.0450684974667621
"2060",0.158089193605952
"2061",3.03289021377218e-05
"2062",0.202425542706146
"2063",0.110780904027843
"2064",0.551958462214188
"2065",0
"2066",0.00243887439029356
"2067",0.00351933596275833
"2068",0
"2069",0
"2070",0
"2071",0
"2072",0
"2073",0.0582408868651186
"2074",0
"2075",7.59109687357151e-05
"2076",0.107316951097238
"2077",0.0220082356349224
"2078",0.000142456961096604
"2079",0
"2080",0.37721762373562
"2081",8.95478697637841e-07
"2082",0.0122774221264882
"2083",0
"2084",4.03033320162116e-07
"2085",2.80959921816759e-06
"2086",2.43826004063807e-05
"2087",1.00758829350012e-05
"2088",0.000744396148968485
"2089",0.175811318532054
"2090",0.000135519058130029
"2091",0
"2092",3.62072583026674e-09
"2093",7.25683479974037e-09
"2094",1.49469325805285e-12
"2095",0
"2096",6.07668360075309e-11
"2097",0
"2098",0
"2099",0.000145105359833808
"2100",3.06044334319466e-09
"2101",0.000568873394354852
"2102",7.21644966006352e-15
"2103",5.44420064585438e-12
"2104",1.09801057135428e-13
"2105",0.593269921290088
"2106",0
"2107",0
"2108",0
"2109",0.304178760785433
"2110",0.000291172761545888
"2111",0.0486794062620076
"2112",6.02191745935343e-06
"2113",1.7806431913403e-05
"2114",0.285934715865194
"2115",0
"2116",0
"2117",6.51616308056102e-05
"2118",0.327045033160256
"2119",0.303088703386949
"2120",0.000129092605009595
"2121",0.00123925910415634
"2122",0.285186129579695
"2123",1.30562227695918e-12
"2124",7.10096326184129e-09
"2125",0.0251130137403526
"2126",0
"2127",0
"2128",0.0100120192058114
"2129",0
"2130",0.499760990771577
"2131",0.261052492383143
"2132",0.944832928735772
"2133",0.137594226379244
"2134",0.929118156992331
"2135",0
"2136",2.32996666404972e-09
"2137",0
"2138",0
"2139",4.37427871702312e-13
"2140",0.577005811206408
"2141",0
"2142",0
"2143",0
"2144",0
"2145",2.39475106411646e-13
"2146",0
"2147",0.00027964623057164
"2148",0
"2149",0
"2150",0
"2151",0
"2152",2.5752322496686e-10
"2153",6.9959837922795e-10
"2154",3.10862446895044e-15
"2155",0.00020581087396232
"2156",0
"2157",0.00275510270417578
"2158",0
"2159",0.332251708704986
"2160",0.046612821431018
"2161",1.99840144432528e-15
"2162",0.00661923327801694
"2163",0.360550587931253
"2164",0.00773404649072462
"2165",0.411738370289356
"2166",0.00305766094976623
"2167",0.000978839768655759
"2168",0.0742044832193742
"2169",0.153509176986619
"2170",1.4432899320127e-15
"2171",0
"2172",0.318805218262059
"2173",0.0752310724750043
"2174",0.00265601307824936
"2175",0.0143895640386111
"2176",0.00623999093519523
"2177",0.7710164590202
"2178",0.529835761998387
"2179",0.000517966594462793
"2180",1.08753324890021e-06
"2181",0.29834779425799
"2182",0
"2183",0
"2184",0
"2185",0.128394990859353
"2186",1.14248599469846e-09
"2187",2.69751649486505e-05
"2188",0
"2189",6.56141807553468e-14
"2190",0.736571782350555
"2191",0.206859862493674
"2192",0.080947577372762
"2193",0
"2194",0.0853864762794266
"2195",0.500690893269722
"2196",0.842305163720399
"2197",0.115415033660293
"2198",0.00218157728039903
"2199",0.0184994880660103
"2200",0.314050152671518
"2201",0.0206484289722033
"2202",0
"2203",0
"2204",0.113686062367688
"2205",0.0681525989398855
"2206",1.15912376252858e-07
"2207",0.0831018230588784
"2208",0
"2209",0.0777317423245559
"2210",0
"2211",0.118641724065879
"2212",0.126828852802669
"2213",0.0407595657060944
"2214",0
"2215",0
"2216",0.792603388979834
"2217",0.880411922276612
"2218",3.86537002211584e-05
"2219",0.00502340795333023
"2220",0
"2221",0
"2222",0.214088291529705
"2223",0.0127083113197742
"2224",0.245150150088063
"2225",0.176497982690093
"2226",0.00390863192970281
"2227",0.11563675407598
"2228",0.00302144767108903
"2229",0.64367396951985
"2230",0.635502134137921
"2231",0
"2232",0.027169451357679
"2233",0.0238576222411604
"2234",0.0585795469755704
"2235",0.169815899870865
"2236",0.02395603582478
"2237",7.41368300083423e-09
"2238",0.000466341230816014
"2239",0.321488347078204
"2240",0.135383008287511
"2241",0.0177907046556536
"2242",0.00193427455061823
"2243",0.0887677396682702
"2244",0.0393511745494014
"2245",0.0252685732829362
"2246",0.0545342066767776
"2247",0.284696181309845
"2248",0.0616636905516538
"2249",0.518656987143357
"2250",0.208245313750867
"2251",0.695875983464982
"2252",0.13638589760614
"2253",0.00285612072441432
"2254",0
"2255",0.188605146464518
"2256",0.00651227998912873
"2257",0.237553971543505
"2258",0
"2259",0.275019596658314
"2260",0.033104462824459
"2261",0.0588851885728915
"2262",0.0100808658472942
"2263",0.0163989023845225
"2264",0.660172385929499
"2265",0.162830111810234
"2266",0.0225772497437319
"2267",0.000920395772689209
"2268",0.0456405320992602
"2269",0.600445313940196
"2270",0.000181644275422888
"2271",0.393728339171808
"2272",0.00878234709001657
"2273",0.245062005054977
"2274",0.0952170194935074
"2275",0.500321892274735
"2276",0.167854279538256
"2277",1.33586475214997e-11
"2278",0.0322774825164374
"2279",0.0444966727759744
"2280",0
"2281",0
"2282",0.474363974221307
"2283",0.0428343743435787
"2284",0.638440660797275
"2285",0.000108372292882519
"2286",0
"2287",0.0784419221758076
"2288",0
"2289",0
"2290",0.196864685761548
"2291",0.303667104770025
"2292",0.285137277558669
"2293",0.00149303899158515
"2294",0
"2295",0
"2296",0.476245736710035
"2297",0.266346019966226
"2298",0.00154013303813305
"2299",0
"2300",3.29215577021813e-09
"2301",0
"2302",0
"2303",0
"2304",0
"2305",1.24835697334902e-11
"2306",0.00561878428527118
"2307",0.164744767953139
"2308",0.0647043740763521
"2309",0.294739547746909
"2310",0
"2311",0
"2312",0
"2313",0.000907303576823559
"2314",0
"2315",0
"2316",0.0391215453338272
"2317",0.0341491889090838
"2318",0
"2319",0
"2320",5.29021271233887e-13
"2321",0.0481759095909936
"2322",0.025474441550557
"2323",0.203909027922273
"2324",0.140356383044538
"2325",0.0734372241718345
"2326",0
"2327",0
"2328",0
"2329",2.54740673000242e-12
"2330",0
"2331",0
"2332",0.216531634159115
"2333",0.180253550280263
"2334",0
"2335",0
"2336",0.0307889713806015
"2337",0.090229540433905
"2338",0.00231480749036439
"2339",0
"2340",0
"2341",0
"2342",0
"2343",0
"2344",0.000336042229396427
"2345",0.0236237217851027
"2346",0.378726100562868
"2347",0.0188769507645361
"2348",0.209670224544215
"2349",0.584540430450995
"2350",0.00523567283766158
"2351",0.00197263992327834
"2352",0
"2353",0
"2354",0
"2355",0
"2356",0.280883588333561
"2357",7.29416527178728e-13
"2358",0
"2359",0
"2360",3.30400805668152e-05
"2361",9.2148511043888e-15
"2362",0
"2363",0.00370763072432534
"2364",0.000149503193695
"2365",0
"2366",0
"2367",3.56295992709477e-10
"2368",0.00072614838935714
"2369",0.878734653301682
"2370",0.103858357526094
"2371",0.753898335108697
"2372",0.00611999594269963
"2373",0
"2374",0
"2375",0
"2376",0
"2377",0
"2378",0
"2379",0
"2380",0
"2381",0
"2382",0.00146264012122244
"2383",0.00696037463237187
"2384",0
"2385",0
"2386",0
"2387",0
"2388",0
"2389",0
"2390",0
"2391",0
"2392",0
"2393",0
"2394",0
"2395",0.00114984209667701
"2396",0.000889966441781076
"2397",0
"2398",0
"2399",0
"2400",0
"2401",0
"2402",3.20365622918928e-10
"2403",0.00620326678752414
"2404",3.05311331771918e-14
"2405",0
"2406",0.259049199393059
"2407",0.000107607689025846
"2408",0.155980923828508
"2409",0
"2410",0
"2411",6.20561563156041e-05
"2412",0.33329613493477
"2413",1.68568159431004e-10
"2414",0.0296806125504084
"2415",0
"2416",0
"2417",0
"2418",0
"2419",0
"2420",0
"2421",0
"2422",0.0157229821545128
"2423",0.299531866614934
"2424",0.0044343083859395
"2425",0.0773854727094521
"2426",0.0935612968931688
"2427",0.0293463066993997
"2428",0.374095989514341
"2429",0.0860904201545205
"2430",1.625874290756e-08
"2431",3.05415434387335e-07
"2432",0.0627721431192251
"2433",0.000446000556876158
"2434",0
"2435",0
"2436",0
"2437",0.278155505868736
"2438",0.0361200173418692
"2439",0.000224526488271315
"2440",0.00443074179412573
"2441",0
"2442",4.76009838746849e-05
"2443",0.0341429798699482
"2444",0.407920229365744
"2445",0.0914720977385962
"2446",0.0579524389500167
"2447",0.995721945920189
"2448",0.00166985620888283
"2449",0.373065303144877
"2450",1.97101224230778e-11
"2451",1.9972091353071e-05
"2452",0
"2453",0.0418776374212386
"2454",0.015011772560929
"2455",0
"2456",0
"2457",0
"2458",1.11022302462516e-16
"2459",0.0268056991708812
"2460",2.94922797294817e-09
"2461",0
"2462",0
"2463",0.0189114896965148
"2464",0.177143753422039
"2465",0
"2466",0
"2467",0
"2468",0
"2469",0.12809024276641
"2470",0.0330896500553169
"2471",0
"2472",0.51914499339088
"2473",0.211439560133139
"2474",0.00028957512517791
"2475",0.0502705920774611
"2476",0.471260755481343
"2477",0.00619558112105412
"2478",0
"2479",0
"2480",0.00700855150466406
"2481",0
"2482",0
"2483",0.422579431109302
"2484",0.26886234711001
"2485",0.121885539065635
"2486",0.0197761598834351
"2487",0
"2488",0
"2489",0
"2490",0
"2491",0
"2492",0
"2493",0
"2494",0.108757798753354
"2495",0
"2496",0
"2497",0.081042522015513
"2498",6.45947739741359e-11
"2499",3.76365605347928e-14
"2500",0.452794416944648
"2501",0.573592578794777
"2502",0
"2503",0
"2504",0
"2505",0.355899420753331
"2506",4.01927591209272e-09
"2507",0.949530815734877
"2508",0.318529859427386
"2509",0.459238820272799
"2510",0.141301453181409
"2511",0
"2512",0.274004839631434
"2513",0
"2514",0
"2515",3.1801228317363e-12
"2516",0.595712977985494
"2517",0
"2518",0
"2519",0
"2520",0.0710484244339619
"2521",0.00846429499083712
"2522",0.0365690381346131
"2523",0
"2524",2.1602472477511e-08
"2525",0.000570941262586055
"2526",0.00132542750498832
"2527",0
"2528",0.000168755688542466
"2529",0.266942188794421
"2530",0
"2531",0
"2532",0
"2533",0
"2534",0
"2535",0
"2536",0.617494517163683
"2537",8.19942546492758e-05
"2538",0
"2539",0.286173055405882
"2540",0
"2541",0
"2542",0.988826353304074
"2543",0.0368351702391908
"2544",0.168886431652729
"2545",0
"2546",0.292918325623048
"2547",0.282695501147279
"2548",0.219249683731899
"2549",0.275420088325052
"2550",6.8966789390501e-08
"2551",0.621261773473356
"2552",0.00567778221861559
"2553",0.0180709901947709
"2554",0.575907915513422
"2555",3.71218467453138e-05
"2556",0.067709691165655
"2557",0.0392957564679441
"2558",0.00876926753897667
"2559",0.150560476897724
"2560",0.889540114752423
"2561",0.115571577309692
"2562",0.88001056399964
"2563",0.885702864383896
"2564",0.434805015887888
"2565",0.679012509144532
"2566",0.0291645143306259
"2567",0.0417361649178221
"2568",0.156859347201038
"2569",1.45312551559362e-05
"2570",0
"2571",0
"2572",1.29679156302132e-10
"2573",0.0214506456243636
"2574",0
"2575",0
"2576",0
"2577",4.95766505625994e-09
"2578",0.284931007057738
"2579",0.0198908363990327
"2580",0.183927720700825
"2581",0.0938948966232396
"2582",0.689562922433934
"2583",0.952324050700659
"2584",0.689433030684688
"2585",7.83967140538522e-06
"2586",0.62251109673377
"2587",4.42657816157599e-06
"2588",0
"2589",0.00602221873258735
"2590",0.00300632814857738
"2591",0.220210911092539
"2592",0.588227687147869
"2593",0.0972425517868422
"2594",0.213000482882869
"2595",0.0137637457382237
"2596",0.67845859148834
"2597",0.0439524839999081
"2598",0.215782889908473
"2599",0
"2600",0.601167646706077
"2601",0.840890682795282
"2602",0.00251930994507743
"2603",0.150959295632161
"2604",0.664565322808236
"2605",0.0622523117026262
"2606",1.65602087598415e-10
"2607",1.67803548833945e-11
"2608",0.186490887440787
"2609",0.000681640125764771
"2610",0.213881515126926
"2611",0.522285100502135
"2612",0.214405889715443
"2613",0.0214936863470031
"2614",0.181668165032078
"2615",0.0263352767968964
"2616",0
"2617",0
"2618",0.028847262661495
"2619",0.000840845824990888
"2620",0
"2621",0.49792729231128
"2622",0.182691676303975
"2623",0.616022308814784
"2624",0.137135504295594
"2625",0.574127786660652
"2626",0.268546560350324
"2627",0.106226831796833
"2628",0.00491401452194906
"2629",0.421898709407864
"2630",0
"2631",0
"2632",0
"2633",0.00457121384706416
"2634",0.00212330871224675
"2635",0.002356391592371
"2636",0.00293653012224104
"2637",8.65973959207622e-15
"2638",0
"2639",0
"2640",0
"2641",0
"2642",0.186581001742453
"2643",0
"2644",0.0856335893676103
"2645",0.211803396184498
"2646",0
"2647",9.22721898888312e-11
"2648",0.116345708511054
"2649",0
"2650",0.258591009898206
"2651",0.942135931607049
"2652",0.035552001638229
"2653",0.101681425114886
"2654",0
"2655",0.00238675183629922
"2656",0.000273393308597991
"2657",0
"2658",0.841693740074583
"2659",0
"2660",0
"2661",0.00513414782825605
"2662",0.0575061909558393
"2663",0
"2664",2.42670114003474e-08
"2665",0.65364711208446
"2666",0
"2667",0.189545996392476
"2668",0.484361342970975
"2669",0
"2670",0
"2671",0
"2672",0.755319775282826
"2673",0
"2674",0.929517285281841
"2675",0
"2676",0
"2677",0
"2678",0
"2679",0
"2680",0
"2681",0
"2682",2.53173992881273e-09
"2683",0
"2684",0
"2685",0
"2686",0.152565274524685
"2687",0.0720469327135718
"2688",0
"2689",0.00686057780915383
"2690",0.0307545526548121
"2691",0.0969985397501959
"2692",0.0901178756513553
"2693",0.0347181863074245
"2694",0
"2695",6.75764677445789e-05
"2696",0
"2697",0.711574681500701
"2698",0.0397558407772982
"2699",0.18240850103318
"2700",0
"2701",0.628871723751969
"2702",0.00554776120315248
"2703",0.728664056448464
"2704",0.212940450200788
"2705",0.0166362099125135
"2706",0.738691955990855
"2707",0.253011027207601
"2708",0.201263616715727
"2709",0.0176108529902528
"2710",0.31567938382473
"2711",0
"2712",0.928847423394398
"2713",0.0046519440642524
"2714",0
"2715",0.452511538470025
"2716",0.0357356497885449
"2717",0.00745830717821883
"2718",0.0078387052828125
"2719",0.00302104623201127
"2720",0.459547355849857
"2721",0.0548756599479669
"2722",0.225071076986249
"2723",0.00255633348110107
"2724",0.0051374017207666
"2725",0.512612702035006
"2726",0.108699973264983
"2727",0.100746489526038
"2728",0.202305946324999
"2729",0.0350139835951898
"2730",5.77987183436601e-06
"2731",0.576511986091453
"2732",0.0019306588236826
"2733",8.48867678823195e-05
"2734",0.000151686319147304
"2735",0.226976076442729
"2736",0
"2737",0.159436952075166
"2738",0
"2739",0.00321130336656961
"2740",0.000185821611607295
"2741",0.802349024251739
"2742",8.66220085051772e-05
"2743",0.00516198844492544
"2744",0.307489147347236
"2745",0.041359285410679
"2746",0.00765384042831296
"2747",0.0673470910670484
"2748",0
"2749",0
"2750",0.45311373176775
"2751",0.00583039494031623
"2752",0
"2753",0.000277886173622011
"2754",0.193467540535277
"2755",0.00327351752163563
"2756",0
"2757",0.202654146129303
"2758",0.00822300904058959
"2759",0.0328116479014332
"2760",0.476519999317304
"2761",0.188103818314258
"2762",0
"2763",0.0491470406299129
"2764",1.92820304203423e-05
"2765",0.000108317330397623
"2766",5.97719213257797e-06
"2767",0
"2768",0
"2769",0.212635415357081
"2770",0.603996433949939
"2771",0.114008397876481
"2772",0.176317135746771
"2773",0
"2774",0
"2775",0
"2776",0.0331535724661864
"2777",0.00170714283609796
"2778",0
"2779",0.110133763305589
"2780",0.000155895167719855
"2781",0
"2782",0.0189817369257336
"2783",0
"2784",0.00878930233875863
"2785",0
"2786",0
"2787",0
"2788",0
"2789",0.225336981484398
"2790",0.0219949975427056
"2791",0
"2792",5.07993647147487e-12
"2793",0.576498070684677
"2794",0.16089913904706
"2795",1.8544055180314e-12
"2796",0.108211841468696
"2797",0.847866441315243
"2798",0.0222049861199091
"2799",0.652069313166733
"2800",0.623880668827891
"2801",0
"2802",0
"2803",0.276504649562328
"2804",0
"2805",0.00209048731336814
"2806",0.100802206798809
"2807",0.0446176102224072
"2808",0.000583422082798823
"2809",0.0139665649825061
"2810",0.0487907198350536
"2811",0.168358988190655
"2812",0
"2813",0
"2814",0.0331362425537274
"2815",0.116624552212159
"2816",0
"2817",0.374116644214941
"2818",0.385687591457744
"2819",0.212680925448489
"2820",0.248092202944047
"2821",0.033437663443741
"2822",0
"2823",0.022864751155935
"2824",0.00575595084749103
"2825",0.834649543702909
"2826",0.0295887955713946
"2827",0.156216115537566
"2828",0
"2829",0.143014292331383
"2830",0.0501623219192276
"2831",0
"2832",0
"2833",0
"2834",0
"2835",0
"2836",0
"2837",0
"2838",0
"2839",0.0487585639197122
"2840",0.937336788533852
"2841",0.159242120882821
"2842",0.24166629548935
"2843",0.000801037434462137
"2844",0.530365830930836
"2845",0.00470939707155038
"2846",0.381687204141152
"2847",0.114261872938206
"2848",0.221558481894552
"2849",0.519465796957941
"2850",0.620176641329738
"2851",0.0634649151857605
"2852",0.0367023780188606
"2853",3.87820282110596e-07
"2854",0.00720890649049299
"2855",0.346261904240096
"2856",0.0739462934936495
"2857",0.318910273702848
"2858",0.00638720133714765
"2859",0.0451386549584555
"2860",0
"2861",0
"2862",0
"2863",0
"2864",0.00204922630623527
"2865",0.00222920554918582
"2866",1.15234981890033e-07
"2867",2.44923482606296e-08
"2868",0.0766571657316466
"2869",7.18810311717277e-05
"2870",0
"2871",0
"2872",0
"2873",0
"2874",0
"2875",0
"2876",0
"2877",0
"2878",0
"2879",0
"2880",2.60531347151538e-06
"2881",0.00656763185398579
"2882",0.461185502388611
"2883",0.038520362952785
"2884",0.00475289349522601
"2885",0.00271139797222597
"2886",0.258864922029704
"2887",0
"2888",5.50705037127841e-11
"2889",0
"2890",0.858315764614149
"2891",0.0082856321701964
"2892",0.0247543733218034
"2893",0
"2894",0
"2895",1.03779881832633e-06
"2896",0.0164973973558902
"2897",0.00804460545270558
"2898",0.680509327915449
"2899",0.000102238977040092
"2900",1.66422431391311e-13
"2901",0
"2902",0
"2903",0.149298843883787
"2904",0
"2905",0.0148669824845188
"2906",0.000174102744572413
"2907",2.51354492775135e-13
"2908",0
"2909",3.15999701359093e-05
"2910",0.000225627731631928
"2911",0.190817470692001
"2912",0.0258023661642314
"2913",0
"2914",0.365934979730087
"2915",1.47154510798941e-11
"2916",0.319096767596994
"2917",0
"2918",0
"2919",0
"2920",0.0167221089782191
"2921",0
"2922",0
"2923",0.00563907829513632
"2924",0
"2925",0
"2926",0
"2927",0.00852206502289177
"2928",0.0735415934417105
"2929",0
"2930",0
"2931",0
"2932",0.00807075798563306
"2933",0.485185059285326
"2934",0.871767249588451
"2935",1.91043203081609e-05
"2936",0.179910304218091
"2937",0
"2938",0
"2939",0
"2940",0.139878639916873
"2941",0.0709119805553819
"2942",0
"2943",0
"2944",0
"2945",0.00113092062191777
"2946",0
"2947",0.00162746719954043
"2948",0
"2949",0
"2950",0
"2951",0
"2952",0.00141020358399524
"2953",0.00341670909808189
"2954",0.291050413818677
"2955",0
"2956",0.106379774872436
"2957",0
"2958",0
"2959",0
"2960",0.191781280046144
"2961",0
"2962",0.000911190572650766
"2963",0
"2964",0.0210018424395001
"2965",0.140819694665248
"2966",0.0243150951838467
"2967",0.0131163254016461
"2968",6.69430627553425e-05
"2969",1.77635683940025e-15
"2970",5.36884349626732e-05
"2971",0.000201758561329646
"2972",0.540961557258773
"2973",0.429392832523952
"2974",0.188862123093164
"2975",0.0157908544797705
"2976",0.0435743510421377
"2977",1.9240165016754e-13
"2978",0
"2979",0.278397617201082
"2980",0.0965298674632211
"2981",0.14541373184247
"2982",0.00104423294594336
"2983",0
"2984",0.762822170870647
"2985",0.00460105547101586
"2986",0.00975109163903209
"2987",0.426031351625952
"2988",0.00378854986044797
"2989",1.48638817112356e-05
"2990",0.527588093853449
"2991",0.413759306878897
"2992",0.0110137483512295
"2993",0.000515419134991757
"2994",0.0704091404888861
"2995",0.556795109137265
"2996",0
"2997",0
"2998",0
"2999",0
"3000",0
"3001",0.15293022645393
"3002",0
"3003",2.07656114525889e-12
"3004",0.00861974588040604
"3005",0.366654114213118
"3006",0.158986512886552
"3007",1.41419581600744e-08
"3008",4.56745752330789e-13
"3009",0
"3010",0.00109526272382232
"3011",0.335506123332503
"3012",4.57038629164686e-10
"3013",9.92664859791326e-05
"3014",0
"3015",0
"3016",0.00310687322159942
"3017",0
"3018",0
"3019",0.0143638114133786
"3020",0
"3021",1.11022302462516e-14
"3022",0
"3023",6.77776425495047e-06
"3024",0
"3025",0
"3026",0
"3027",0
"3028",9.03055408230102e-13
"3029",0
"3030",0
"3031",0
"3032",0.220831078587259
"3033",0.576379689026994
"3034",0.502178276866945
"3035",0.242067403214154
"3036",0
"3037",1.63204416647744e-09
"3038",0
"3039",0
"3040",0.302649001103036
"3041",0
"3042",0.337275865465203
"3043",0
"3044",0
"3045",0.35244781123732
"3046",0.723671367795157
"3047",1.19534493414619e-10
"3048",0
"3049",0
"3050",1.57608026629674e-09
"3051",0
"3052",0
"3053",0.00173509798299532
"3054",0
"3055",0
"3056",0.00165106723178099
"3057",0
"3058",1.13022846637278e-09
"3059",0.453735689979906
"3060",0
"3061",0.00104492548639912
"3062",0
"3063",0
"3064",0
"3065",0.705896399966865
"3066",1.40998324127395e-13
"3067",0.00438728544742073
"3068",0.00275469645798299
"3069",0
"3070",3.47964043018179e-05
"3071",0.318878260888488
"3072",4.33021261070365e-08
"3073",0.124735957731102
"3074",0.000856792674201579
"3075",0.00646554520377685
"3076",0
"3077",0
"3078",0.14854285634117
"3079",0.121188499653323
"3080",0.0199104953099252
"3081",0.00484394283114298
"3082",0.0999259258940403
"3083",0.0159366574746516
"3084",0.757826306012647
"3085",0.0554468290521403
"3086",0
"3087",6.05317568743713e-05
"3088",0
"3089",0
"3090",0.0262645485914256
"3091",0
"3092",0
