"","x"
"1",0
"2",0
"3",0
"4",0
"5",0
"6",0
"7",0
"8",0
"9",0
"10",0
"11",0
"12",0
"13",0
"14",0
"15",0
"16",0
"17",0.000154253480710076
"18",0
"19",0
"20",1.33041355709906e-10
"21",0
"22",1.84304924655265e-08
"23",0
"24",0
"25",0
"26",0
"27",0
"28",8.64724948159701e-05
"29",0
"30",6.65709336076237e-05
"31",0.120291528994012
"32",0
"33",0
"34",0
"35",0
"36",0.00407591018000286
"37",1.75411440928031e-09
"38",0.111500031264604
"39",5.52931811448332e-10
"40",0
"41",0
"42",0
"43",0
"44",0
"45",0
"46",0
"47",0
"48",3.2430613750023e-11
"49",0
"50",0
"51",0
"52",0
"53",0
"54",3.83731491027106e-10
"55",0
"56",0
"57",0.56977333734151
"58",0
"59",0
"60",0
"61",0.0740925311228534
"62",0
"63",0.00427902966906057
"64",0.0132712044641988
"65",0
"66",0.0531993021050597
"67",1.32782673745169e-13
"68",0
"69",0.382615994652326
"70",0
"71",0
"72",0.0234840756877961
"73",9.05093366920795e-08
"74",2.00617300549766e-13
"75",0
"76",0.000236297865063295
"77",0
"78",6.38207052217066e-06
"79",0.00767001535336431
"80",0
"81",0
"82",0
"83",0
"84",2.72125742495355e-07
"85",0
"86",0
"87",4.2075263040342e-07
"88",0.0147479073228997
"89",0
"90",0
"91",7.7715611723761e-16
"92",0
"93",0
"94",0
"95",0
"96",0
"97",0
"98",0
"99",0
"100",0
"101",0
"102",0.000113800562918431
"103",0
"104",0
"105",0
"106",5.99520433297585e-15
"107",0
"108",0
"109",0
"110",0
"111",0
"112",0
"113",0
"114",1.99303505921122e-08
"115",0
"116",1.22400348201435e-06
"117",0
"118",2.10376160936221e-11
"119",2.60046461053598e-06
"120",0
"121",0
"122",0
"123",0
"124",0
"125",4.10047551469006e-11
"126",0
"127",0.295090087401662
"128",0.00216592720426645
"129",0
"130",0
"131",0
"132",0
"133",0
"134",0
"135",0
"136",0
"137",0
"138",0.0763295912892719
"139",0
"140",0
"141",0
"142",0
"143",0
"144",0
"145",0
"146",0
"147",0
"148",0.023922924496105
"149",0
"150",0
"151",0
"152",2.18058904266627e-12
"153",0
"154",0
"155",1.3017142919125e-11
"156",0
"157",9.29401309246458e-08
"158",0
"159",0.00162903481260901
"160",1.16822629347979e-09
"161",1.06285718078913e-05
"162",3.77475828372553e-15
"163",0
"164",0
"165",9.05709618415074e-10
"166",0
"167",0
"168",0
"169",0.000310229072491119
"170",0
"171",0
"172",0
"173",0.0146571945791266
"174",0.00264502883689277
"175",3.94462240649318e-13
"176",4.5590678372176e-05
"177",0.176866882008223
"178",0.654222177345422
"179",8.33592276701101e-05
"180",0
"181",0
"182",0.00143074163173262
"183",0
"184",0
"185",0
"186",0
"187",0.486875587356923
"188",0
"189",0
"190",0
"191",0
"192",0.68176429850102
"193",0.168222902176779
"194",0
"195",1.36087701108067e-08
"196",0
"197",0.00255478548281007
"198",0.0004807963982012
"199",8.04911692853238e-14
"200",0
"201",0.0701781118326733
"202",0
"203",0
"204",0.176416618349465
"205",0
"206",0
"207",0
"208",3.55338869439947e-10
"209",3.75284805453902e-08
"210",8.50262450960981e-05
"211",1.7332624224764e-10
"212",1.69864122767649e-14
"213",3.03950198343728e-11
"214",0.000370942644153716
"215",0
"216",0
"217",0
"218",0
"219",3.94769911084003e-05
"220",0
"221",0
"222",0
"223",0
"224",0
"225",1.4432899320127e-15
"226",0.113823715923403
"227",0.152851076361607
"228",0.141040046150767
"229",7.60546070566193e-11
"230",6.66133814775094e-16
"231",0
"232",0
"233",0
"234",0
"235",0
"236",0
"237",3.5527136788005e-15
"238",2.68547498682992e-08
"239",0.0222092784190827
"240",1.46690326552346e-10
"241",0.269423360622255
"242",0.00265965320014516
"243",0
"244",0
"245",0
"246",0.000354507076742783
"247",0.01283820561149
"248",0
"249",0
"250",0
"251",0
"252",0
"253",0
"254",0
"255",0
"256",0
"257",4.07781908240423e-08
"258",0.0408822101061396
"259",0.0471039220432656
"260",0.00160339651919617
"261",0
"262",0.000248646020315602
"263",0.000386072499817258
"264",0.809850833080312
"265",9.78196697754008e-06
"266",0.00182625079918408
"267",7.69838637282305e-11
"268",0.0234545518747808
"269",0.0595732536512856
"270",7.13853719469526e-08
"271",4.96703247887531e-06
"272",0.00856144756976285
"273",0.0017496054738283
"274",0
"275",1.51989532071184e-13
"276",0.000936646817921716
"277",0
"278",0
"279",0
"280",0
"281",0
"282",0
"283",0
"284",0.000137772846226403
"285",7.96115824042154e-07
"286",0
"287",1.92377496599505e-07
"288",0
"289",0.0286750660837647
"290",0.000117248273887149
"291",0
"292",0
"293",0
"294",0.00713150441451371
"295",0
"296",0
"297",9.66401834232578e-05
"298",1.20532091294479e-05
"299",0.000169759127548241
"300",0.0123564354661722
"301",0.000596568295896494
"302",0
"303",6.40740548666363e-05
"304",0.150991303636945
"305",0.0102183813491005
"306",0.0290820810122402
"307",0.115212175816604
"308",0.000904989685632462
"309",9.43467395883024e-05
"310",0
"311",6.6935926579248e-08
"312",0.00234974232879248
"313",0
"314",1.21641284822616e-08
"315",0.0579747849844925
"316",3.32040384076748e-09
"317",3.99833965877283e-05
"318",0.0157176795213163
"319",0
"320",0
"321",0.0419076801800972
"322",0.156295571798777
"323",2.06640662359092e-08
"324",5.37763194313756e-05
"325",0
"326",8.71935673818491e-06
"327",0.0585711676055685
"328",2.53299215158265e-07
"329",7.90980805034369e-05
"330",0.0215877150951476
"331",1.03851059474191e-05
"332",6.57481656141101e-05
"333",0.0162087512266308
"334",0.512545016357708
"335",0.000418948542338371
"336",0.000119460413044226
"337",0
"338",1.46322731708892e-10
"339",9.43689570931383e-15
"340",0
"341",0.000327391125982901
"342",0.00197426265850853
"343",0.0272827644798458
"344",0
"345",0.000906772595293925
"346",0.016157881933355
"347",0.000606070332870967
"348",0.0292356801700552
"349",7.74935671188359e-14
"350",0.000211336974637155
"351",0.000312197184815899
"352",8.42466429951116e-10
"353",0.0205312127042023
"354",3.21566572258902e-08
"355",0.0534974873010687
"356",0.0501390170990628
"357",1.38132529307056e-05
"358",3.46908052092365e-05
"359",0.00018139542368667
"360",0.000228558711319882
"361",0.111365240635869
"362",0.0371278151774379
"363",1.22124532708767e-15
"364",0.000182876512200614
"365",0.00171018012817215
"366",0.0477102721885653
"367",0
"368",0.0142848086188984
"369",0.798945150797805
"370",0.0139381626522342
"371",0
"372",0
"373",1.8472148230031e-05
"374",0.00807833464070706
"375",0.0271227280599007
"376",0.000120468620941283
"377",0.00221989071638429
"378",1.29860532882553e-06
"379",0.000836734681990969
"380",0
"381",0
"382",0.0919925878523047
"383",0.00106715952516323
"384",0.204726042721966
"385",0.000384084548456731
"386",0.120263467306639
"387",0.155111361911825
"388",5.75116435885814e-06
"389",5.78801756523362e-08
"390",0.00108504372476848
"391",0.0211747234728089
"392",0
"393",0
"394",7.51732009973693e-13
"395",0.00024296721383088
"396",0.000672376977589817
"397",4.73038608284071e-10
"398",0
"399",0.00312587780665252
"400",0.000325197948318867
"401",0
"402",0
"403",0.277654481736179
"404",0.0218182645689831
"405",0.00337751973941303
"406",0
"407",0
"408",2.42443714548735e-07
"409",9.066672209046e-05
"410",0
"411",7.2006623391685e-06
"412",0.00500108496950225
"413",0
"414",0.0389158527538332
"415",2.39701960573768e-05
"416",2.22913040359707e-07
"417",0.00432102847522164
"418",0.00167617302317968
"419",0.0236767882552829
"420",1.19062723968888e-06
"421",0.000366252385596511
"422",0.00324528321493445
"423",0.0181553412430305
"424",0.0503014163738441
"425",0.655738169527058
"426",0.199491968738323
"427",0.188284520732192
"428",0.832640583792555
"429",0
"430",0
"431",2.75870548627211e-10
"432",0.000885099647703114
"433",0.0357176049500925
"434",0
"435",0.125454758014894
"436",3.76082515579634e-05
"437",1.05895295865466e-07
"438",0.00157611658855328
"439",3.76415058123136e-07
"440",0.0154189905181407
"441",0.0925779304421065
"442",0
"443",0
"444",0
"445",0.00265439698968073
"446",0.000120415709874644
"447",0
"448",0.00204582949284737
"449",0.0232364703124982
"450",0.108920607551416
"451",4.24104951157744e-09
"452",0.0521853847669486
"453",0.000522635322261378
"454",0.00125130008652086
"455",0
"456",0
"457",3.7001650436963e-06
"458",3.1269675737633e-10
"459",5.25218813791639e-05
"460",4.80492245991115e-09
"461",0.227245486390522
"462",0.200668712270249
"463",0.00778570156075731
"464",1.23785850791869e-06
"465",0.077098261913074
"466",0.0689176800164557
"467",1.4632936751191e-08
"468",2.17027606996822e-09
"469",0.000766241855237992
"470",0.00495632793755363
"471",0.0902922693098321
"472",0
"473",0.0159760458589596
"474",4.38484800924233e-06
"475",0.00110539858844538
"476",0.723922652520053
"477",0
"478",0.0922662865109352
"479",0.000440850182148234
"480",0.0141642225848446
"481",0.0621665237461259
"482",6.5103029314173e-06
"483",0.439914655181085
"484",1.20814631998645e-06
"485",0.254409754097243
"486",3.87580293848e-06
"487",0.000171642066419397
"488",0
"489",0
"490",0
"491",1.36211649103268e-05
"492",0
"493",1.97350688125875e-05
"494",0.000123305503048288
"495",0.000103190700073474
"496",5.52602408276925e-12
"497",1.63494218163862e-10
"498",2.24328163445087e-06
"499",0
"500",3.31290550548147e-13
"501",1.01608167968337e-06
"502",1.35276234658477e-11
"503",1.33226762955019e-15
"504",2.3822688266506e-10
"505",0
"506",5.2941904193915e-09
"507",2.06030609373187e-06
"508",0.290600334895509
"509",9.15267861500979e-13
"510",0
"511",0
"512",0
"513",0
"514",0.155073634107336
"515",3.2393380627882e-06
"516",0.000275159229357502
"517",0.0108586297671609
"518",0.728320781340921
"519",0.00434784412139166
"520",0.0549446202141891
"521",0.113772225554055
"522",0.000473928261323198
"523",0.000693097978319179
"524",0.117561732725463
"525",0.0130014580688844
"526",0.0629288274715156
"527",0.0517630491926649
"528",0.0272249492129653
"529",0.00168237313544251
"530",6.47315210738908e-05
"531",0.00661302689560639
"532",0.000137495873081983
"533",0
"534",0.0143529794043719
"535",0.82521241419808
"536",0.142803588292374
"537",0.00454649210176006
"538",3.56026319536795e-12
"539",0.00063333297822421
"540",0.00237162647671418
"541",0.617576330449203
"542",0.00174651165703488
"543",0.00129066613642659
"544",0.000384196720323082
"545",0.000220000879520788
"546",5.09372458656898e-08
"547",0
"548",0.00869469183999416
"549",0.0344815063035604
"550",0.608550737734461
"551",0.144125856113522
"552",0.000342720199843383
"553",0
"554",0.579700595082854
"555",1.04919832821793e-08
"556",4.5540186504045e-06
"557",2.31438068709622e-08
"558",0.0243641689640656
"559",0
"560",2.25128514719231e-08
"561",0.426176277545204
"562",0
"563",0.0543619728283807
"564",3.21707105399582e-11
"565",0
"566",0.00477964056727287
"567",0.000584979715755995
"568",0.0119415381606199
"569",3.02973184540534e-07
"570",0.000187891517877681
"571",0.00197132138309264
"572",0.000229306074686297
"573",0.0122031159386741
"574",2.71806778084915e-07
"575",0.00842577927156007
"576",0.0167656753632865
"577",2.11423277773903e-08
"578",0.000171083110436676
"579",0.00288709591012715
"580",6.32043887716094e-06
"581",1.18446634223002e-06
"582",0
"583",0
"584",0
"585",0.0374507298897737
"586",0.00885815004130353
"587",0.0410072589788226
"588",0.297550243160954
"589",5.61584417246852e-06
"590",0
"591",0
"592",0.0368522913390797
"593",0.000116638260674984
"594",0.331570364705398
"595",0.0125403320602918
"596",0
"597",1.87302958105651e-05
"598",0.00212034835776553
"599",0.131450363305999
"600",0.000262445840040426
"601",0.011958981306906
"602",0.00600302626700477
"603",0.0198672466815407
"604",1.956103390377e-09
"605",0.137836145329539
"606",0
"607",0.00548346177837034
"608",0.423346501235574
"609",0.216254897488924
"610",0.589546905632207
"611",0
"612",0.000578524092386234
"613",0.000124969767159255
"614",0.00929485634554317
"615",4.36892522623911e-05
"616",0.00592063071949034
"617",4.8157685172967e-08
"618",9.63031799861014e-08
"619",0.0240008657556855
"620",0.233925149746889
"621",4.12177268094283e-07
"622",0.00255817177051432
"623",0
"624",0.00123911967056267
"625",0.00276213747847576
"626",1.06345587957968e-06
"627",0.0590111597700481
"628",0.885890747272724
"629",2.33146835171283e-15
"630",1.14080544209028e-05
"631",0.00746146089570021
"632",4.02862211955624e-05
"633",0
"634",0.00274744308395192
"635",0.305580471895554
"636",6.66833622542384e-06
"637",0.0110617591226053
"638",0.00261867331128396
"639",2.17403983704401e-10
"640",4.89744241966017e-05
"641",0
"642",1.31430422101175e-11
"643",3.2954950990316e-09
"644",7.7463547021317e-08
"645",0.98364286971446
"646",0.00106372207921002
"647",1.22796635493305e-05
"648",0
"649",1.48177236699576e-05
"650",0.00062457005851646
"651",2.13717932240343e-13
"652",0
"653",0.470742301119299
"654",0.000107868844558601
"655",0
"656",0.000480442975264617
"657",0.00235805844215264
"658",0.00118919956421237
"659",0
"660",0
"661",0
"662",0
"663",0
"664",0
"665",0
"666",0
"667",3.5527136788005e-15
"668",0.352861172557076
"669",0
"670",0
"671",0
"672",0
"673",6.08132433299602e-10
"674",1.18886489541836e-08
"675",0
"676",0
"677",1.2708576493603e-05
"678",1.33025035431444e-10
"679",2.30409302748313e-09
"680",0.178756543407523
"681",0.00192571806062281
"682",0
"683",0
"684",0
"685",0.00430673181677377
"686",7.91310350578556e-11
"687",0.0145378583911316
"688",0.121553936877467
"689",0.0429508753850353
"690",6.36076802340568e-09
"691",6.68291460359516e-06
"692",1.49416234496158e-07
"693",0
"694",1.23720500511126e-09
"695",1.67913234982997e-07
"696",6.78925697883415e-08
"697",2.96020113299544e-06
"698",0
"699",2.02316996489316e-08
"700",0
"701",6.52914620080658e-06
"702",1.66898860287645e-07
"703",1.55376972843513e-07
"704",5.30777130139937e-05
"705",1.26838117809891e-05
"706",4.28690416498512e-12
"707",2.08799644241253e-12
"708",7.99683604890689e-08
"709",0.000271647810375031
"710",1.16981197917365e-06
"711",0
"712",0.00109636985299066
"713",0.000535369293841237
"714",1.9733835767699e-06
"715",0.0537722349586394
"716",5.83098075845889e-06
"717",0.0190662143952387
"718",1.10253567020546e-06
"719",0.0101204857064435
"720",0.0042109980619679
"721",2.65300096224941e-07
"722",0.0240394324377624
"723",2.39142039504259e-13
"724",0
"725",3.72049580144029e-07
"726",0
"727",0
"728",0
"729",0
"730",0
"731",0
"732",0
"733",0
"734",0
"735",0
"736",0
"737",0
"738",0.288159988696169
"739",0.00694136345668117
"740",0.00264745856046555
"741",4.9323007967117e-05
"742",4.35535023712852e-07
"743",0.000255008970601045
"744",0
"745",7.38966364877136e-07
"746",0
"747",0.00142453592402991
"748",0
"749",0.00117534295185373
"750",0
"751",1.67030430486825e-07
"752",0.000369304188088448
"753",1.98778226101481e-08
"754",0.000124362611711448
"755",0.0570861071364225
"756",3.22511817252291e-09
"757",0
"758",2.8698757814638e-09
"759",0.00404213321881486
"760",2.41275166512622e-09
"761",0.00303364780706228
"762",0.0362889459037051
"763",0
"764",0
"765",0
"766",5.55607561403271e-07
"767",4.93121167444155e-06
"768",0
"769",3.98501400185047e-05
"770",0
"771",5.44688177406272e-06
"772",0.000783518784027826
"773",1.66951324986897e-08
"774",0.850948042137085
"775",0.759530425046055
"776",0.000194022459032772
"777",3.55657807049603e-06
"778",8.62948553170817e-07
"779",3.13274961527554e-11
"780",0.000692400682667293
"781",0
"782",0
"783",0
"784",0.000221582934675446
"785",0
"786",0
"787",4.95126162292081e-12
"788",0
"789",0
"790",0
"791",0
"792",0
"793",0
"794",0
"795",0
"796",8.50575054167635e-07
"797",0
"798",1.11022302462516e-15
"799",0
"800",0
"801",1.49395940063357e-10
"802",2.55964626161287e-08
"803",0.012931217236763
"804",0.0127410353327868
"805",0.00161751213096695
"806",0
"807",0.00916754010489729
"808",0.0886334440833245
"809",2.94599964013598e-05
"810",0.0511895900683969
"811",0
"812",0.00514174317529614
"813",0.127524689622018
"814",0
"815",0.782625389582742
"816",0.541914470830075
"817",0.00357725556615751
"818",0.0037905712698828
"819",0.67703599113975
"820",0.0654996064152664
"821",0.0761184845851316
"822",0.219433785197113
"823",0.236161605503485
"824",3.5094286484294e-05
"825",7.68657710215059e-06
"826",1.07988584741037e-09
"827",0.61365818499451
"828",0.771807081628503
"829",0
"830",0
"831",0
"832",0
"833",0
"834",0
"835",0
"836",0
"837",0
"838",0
"839",0
"840",0.00144205184624546
"841",1.62587746599385e-08
"842",0
"843",0
"844",0.0595636650792287
"845",0
"846",0
"847",1.77608050350164e-05
"848",2.58551898779658e-08
"849",0.561001677348548
"850",0.0153463089912647
"851",0
"852",0.000196926816014575
"853",0
"854",0.541895245517873
"855",0.151467958773184
"856",0.00143646377201745
"857",0.000448531544969044
"858",7.36570610462284e-05
"859",0.327494807378373
"860",9.82516475778183e-06
"861",0.317925742290582
"862",0.000810170027938484
"863",0.0277897338568671
"864",0.760784862206692
"865",0.177013207115219
"866",0
"867",1.26673285683054e-05
"868",0
"869",1.4967056444215e-06
"870",0.00844605450563551
"871",0
"872",0.138682840314438
"873",0
"874",0
"875",3.58734246129755e-05
"876",0.0696323871131912
"877",6.65853324810506e-05
"878",0
"879",0.000398275853520258
"880",2.00073242456744e-05
"881",0.415426123220439
"882",0.135608619823006
"883",0
"884",0
"885",0.000384259844152357
"886",0.0170522354468996
"887",0.00233143692142568
"888",0.0471163958717259
"889",0
"890",0.0079851007987003
"891",4.72472143508984e-06
"892",0
"893",0
"894",0.289425562341156
"895",0
"896",0
"897",0.0210069245123646
"898",0.0282414845634056
"899",0
"900",0.00144583027383827
"901",0.00323476227966424
"902",0.00445039871257924
"903",0
"904",8.33187380344658e-05
"905",0
"906",6.77048177014639e-05
"907",0.00742102150858848
"908",0.266923366382592
"909",0.000923472050641361
"910",6.69966248389997e-05
"911",7.0062263435311e-08
"912",0.00142582929309742
"913",0.00122285227511199
"914",0
"915",0.146336371221023
"916",0.0308104170772809
"917",0
"918",0
"919",0
"920",0.15680712050345
"921",1.1961251700221e-07
"922",0.00127290081053777
"923",1.57525992250385e-10
"924",0.527506432137767
"925",0.00130921915173277
"926",4.24527771936134e-07
"927",0
"928",0
"929",8.54997194821294e-06
"930",0.0386450170356594
"931",0.555588770026141
"932",0.120777125664954
"933",0
"934",0.00429014629247182
"935",4.53506304568529e-05
"936",0.0107384469948347
"937",0.00655864547985907
"938",0.0197146772012478
"939",0.134717674114119
"940",5.14037022246727e-05
"941",8.63736773116797e-05
"942",0.00371375477764102
"943",0.000498682819145779
"944",5.2404156019481e-05
"945",6.55322199331065e-05
"946",0.280963268220386
"947",0
"948",0.0214316931559633
"949",4.98844610063998e-09
"950",0.0133998747579835
"951",8.49799315183475e-06
"952",0.0968048753296893
"953",0.0884854811971867
"954",0.00952832762740807
"955",0
"956",0.00203687900257976
"957",0.00318867496770259
"958",0.0340958320582787
"959",0.00228352362026252
"960",0
"961",0.00638770814624479
"962",0.627805479732452
"963",0
"964",0.0380451084721813
"965",0.16259711259393
"966",1.26971155811617e-08
"967",0.00164861573082475
"968",0
"969",0.116269559688341
"970",0.0197420523415928
"971",0.0206522748205704
"972",0.124131736320373
"973",0.0248976351790292
"974",0.0354542615364923
"975",8.30378470823012e-05
"976",7.44427034771178e-06
"977",0.0623856893561019
"978",0.00347912058319255
"979",0.00356509699452634
"980",0
"981",0.0018189576884351
"982",5.90415589751814e-08
"983",4.13366008089611e-11
"984",0.00083708922950132
"985",0.00112328963313291
"986",0
"987",0
"988",9.18086702115239e-05
"989",0
"990",0
"991",4.54100534952318e-10
"992",0
"993",4.59194904323112e-11
"994",0
"995",0
"996",0
"997",9.96980276113391e-14
"998",3.97459842815806e-14
"999",1.63424829224823e-13
"1000",5.97190119577817e-09
"1001",0
"1002",0
"1003",0
"1004",0
"1005",2.56147325572442e-11
"1006",0
"1007",0
"1008",2.70019332793137e-06
"1009",0.017082806812181
"1010",0
"1011",0.752701478800938
"1012",0.563441872055179
"1013",0.0775326501409088
"1014",1.32005517627931e-13
"1015",0.0426024147719523
"1016",0.00690468061785987
"1017",1.28896893158981e-13
"1018",6.81057757967451e-08
"1019",0
"1020",8.14271344795614e-08
"1021",0.222347573619622
"1022",5.34368516103001e-09
"1023",0.0457854393114866
"1024",0.203525745794516
"1025",0.0165795366586822
"1026",0.017113190891797
"1027",0.00257534161199324
"1028",0
"1029",6.99011607485645e-08
"1030",0
"1031",0
"1032",0
"1033",0.00655092098663279
"1034",0.0904106174504653
"1035",0.00482850620112019
"1036",0.143504165541638
"1037",0.035963800527679
"1038",0.0586131687833679
"1039",0.000784087231689101
"1040",0.000282417047712924
"1041",0.0671213187842961
"1042",2.54764086715653e-07
"1043",0.00124908727287665
"1044",0.00797732822437447
"1045",1.00622337551037e-06
"1046",0
"1047",0
"1048",0
"1049",0
"1050",0
"1051",0
"1052",0
"1053",0
"1054",0
"1055",1.16895600421607e-07
"1056",0.190700445057141
"1057",0
"1058",0.0091258645334753
"1059",0.603753781559345
"1060",0
"1061",0.001152603202629
"1062",0.354810225649941
"1063",0.0666570474353518
"1064",0.0155018085818474
"1065",0.899190094654385
"1066",0.000610609696865771
"1067",0.213580281359933
"1068",0.00899661757891668
"1069",0.0176815222490201
"1070",0.0021402090673377
"1071",0.826422913464626
"1072",0.616316123751649
"1073",3.49286425667117e-05
"1074",0.0274444467256514
"1075",0.00306417624715583
"1076",0.900978128959694
"1077",1.58861812593614e-11
"1078",0.000175747945491023
"1079",8.21565038222616e-15
"1080",2.81370054477925e-07
"1081",0.00048487680927134
"1082",0.0227126685556749
"1083",0.0781370135897448
"1084",0.543166802246234
"1085",0
"1086",6.01061453594509e-05
"1087",0.0453597484655723
"1088",8.10462807976364e-15
"1089",0.00165408905080067
"1090",0.00102174935464816
"1091",0.00165237000822405
"1092",0.0613177901319124
"1093",0.0330884031783829
"1094",0.0542348558607109
"1095",0
"1096",3.79700554331563e-08
"1097",0.000664878958148041
"1098",0
"1099",0.000305808661191453
"1100",0.000325464228286276
"1101",0.0638123329069044
"1102",0.021474324228245
"1103",0.540823903806195
"1104",5.60989926694511e-05
"1105",0
"1106",0.116241746429539
"1107",1.2223555501123e-13
"1108",0
"1109",0.0123615146378167
"1110",0.00114527290114685
"1111",2.14456816138853e-05
"1112",5.81756864903582e-14
"1113",3.79454269683333e-06
"1114",0
"1115",0
"1116",0.123012146028102
"1117",0.0126942379056565
"1118",0.000413412679121317
"1119",6.04316986253517e-05
"1120",0.0161207918831268
"1121",3.6224197353274e-05
"1122",0.199195150764716
"1123",0.00176773167626987
"1124",0
"1125",0
"1126",0.00185269093506313
"1127",0.0279790711482385
"1128",0
"1129",7.99292812569963e-06
"1130",0.406641189490519
"1131",0
"1132",4.36021547779442e-05
"1133",0
"1134",1.54339977238571e-05
"1135",4.44089209850063e-16
"1136",3.286149130588e-12
"1137",1.18276044513976e-09
"1138",0.653393927973942
"1139",0.00528212618164614
"1140",0
"1141",0.434926276930207
"1142",0.00493169953180816
"1143",0
"1144",0
"1145",0.000875883786485288
"1146",0.0631032239081601
"1147",1.86413954272879e-08
"1148",0.00659980653107961
"1149",0.0206664225815612
"1150",1.9419304219892e-05
"1151",4.48000306160212e-05
"1152",0.00303419195765109
"1153",0.125444852508226
"1154",0.00892615894412796
"1155",0
"1156",0.000257890861441457
"1157",0.00406367416131248
"1158",0.494373958607811
"1159",0.000694941838914165
"1160",8.6811359212291e-09
"1161",0
"1162",0.183237860637307
"1163",0.000495090338015758
"1164",1.42024057896428e-05
"1165",0
"1166",2.31093588709541e-09
"1167",0
"1168",0.000225867111813161
"1169",0.0232364058415382
"1170",2.86981604704639e-05
"1171",0.00481586505790688
"1172",0.00064712897098862
"1173",0.00863277805619844
"1174",0.00205440213534358
"1175",0.0112883811157876
"1176",0.000128633222278962
"1177",0.00345623883146406
"1178",0.000947342456900979
"1179",0.00553218014875956
"1180",0.000171861304549714
"1181",2.4414540252149e-05
"1182",0.000539526949393965
"1183",0.0100515566710941
"1184",1.51586964795003e-05
"1185",0
"1186",5.49116307979602e-12
"1187",0
"1188",0
"1189",0
"1190",9.86921655510287e-12
"1191",0
"1192",0.137858351985343
"1193",0
"1194",0.00249061436283271
"1195",0
"1196",3.30652158156974e-05
"1197",0.0473370957364047
"1198",0.00235937980077716
"1199",1.74651207925924e-05
"1200",0.023165860412463
"1201",0
"1202",0.000194579750600554
"1203",0.00602920195876955
"1204",0.0196240081368774
"1205",0.000773288920060455
"1206",0.00124809821396954
"1207",5.28056951730749e-05
"1208",4.2217270169731e-06
"1209",0.0125291121811382
"1210",0.0961598738684327
"1211",0.0741612243953886
"1212",0.000682607433955207
"1213",2.90819809126708e-05
"1214",0.000264928211342719
"1215",0
"1216",3.41982986373779e-09
"1217",0.000521953313493584
"1218",0
"1219",0
"1220",0.266177090452249
"1221",0.00734662010076426
"1222",2.47955081655871e-06
"1223",0
"1224",0.0020295930959906
"1225",0.00841916980651836
"1226",0
"1227",0
"1228",0.271501108491068
"1229",0.0242549980660498
"1230",0.00244108165454282
"1231",0
"1232",0
"1233",9.18024842810894e-08
"1234",2.08407957558165e-10
"1235",9.06275055001515e-13
"1236",0
"1237",0
"1238",0
"1239",0
"1240",0
"1241",0.000245695120185241
"1242",0
"1243",0
"1244",3.00340419201461e-09
"1245",0.00043016245639238
"1246",8.77076189453874e-15
"1247",0.000126259967261566
"1248",3.04014206253811e-06
"1249",3.8936143054169e-07
"1250",0
"1251",0
"1252",8.8443837087393e-07
"1253",4.34504675572711e-08
"1254",0
"1255",0
"1256",0.226539836374836
"1257",1.47378775849916e-11
"1258",0
"1259",0
"1260",1.24344978758018e-14
"1261",0
"1262",0
"1263",0
"1264",2.4635289305075e-05
"1265",0
"1266",0
"1267",0.0114397599443723
"1268",1.47712009290757e-09
"1269",0
"1270",5.55111512312578e-16
"1271",0.192566776486878
"1272",2.32887491957712e-07
"1273",0
"1274",0
"1275",0
"1276",0
"1277",5.44009282066327e-15
"1278",0.00250121363474198
"1279",2.88446039276025e-07
"1280",0.00147842513142826
"1281",0
"1282",0.00192717479099336
"1283",3.10862446895044e-15
"1284",0.507437760139994
"1285",0
"1286",0.0392184856781058
"1287",0
"1288",0
"1289",0.0950753857079341
"1290",6.46561216655073e-06
"1291",1.99876204121097e-06
"1292",0.154412861252099
"1293",1.44406573977518e-05
"1294",9.75582925910601e-06
"1295",0.193188893105908
"1296",0.00030547198216313
"1297",0.00240115111382211
"1298",0.000309347392390413
"1299",0.00122067207126819
"1300",0.869295871936042
"1301",0.0141151822467346
"1302",0.000180690751405033
"1303",0
"1304",0
"1305",0
"1306",0
"1307",0
"1308",0
"1309",9.35672042416957e-05
"1310",3.32273651926229e-08
"1311",0
"1312",0
"1313",0
"1314",0
"1315",0
"1316",0
"1317",0
"1318",0
"1319",1.2182032049779e-09
"1320",0
"1321",0.0369157087608833
"1322",0
"1323",0
"1324",0
"1325",0
"1326",1.67818992036217e-09
"1327",0.227445421229264
"1328",2.46684894733562e-11
"1329",2.57877614605606e-05
"1330",0.010714609431254
"1331",1.16746056788575e-06
"1332",0.000550791910002402
"1333",0
"1334",0
"1335",6.91154466663235e-05
"1336",2.48477850517403e-08
"1337",0.00292956380152753
"1338",0
"1339",1.78143619022908e-06
"1340",6.93904889104147e-08
"1341",3.55849657790452e-05
"1342",0.0604667255588484
"1343",0.00016824020399675
"1344",5.64255243751255e-07
"1345",0
"1346",0.000108896362016275
"1347",3.85901501531727e-07
"1348",1.14352971536391e-13
"1349",0
"1350",0
"1351",0
"1352",0
"1353",0
"1354",0.00119945293198176
"1355",0
"1356",5.98976424015518e-12
"1357",3.10002024050959e-11
"1358",0
"1359",0
"1360",8.24257539999707e-09
"1361",0
"1362",0.00171107974899742
"1363",2.78106320750204e-07
"1364",2.12052597703405e-13
"1365",6.49751811243604e-08
"1366",0.00162320263261151
"1367",0
"1368",6.76463551840811e-10
"1369",0
"1370",1.50446322066955e-12
"1371",0
"1372",2.52634463804302e-06
"1373",0.00134969988376077
"1374",0
"1375",0
"1376",0.178265832352554
"1377",0.0260181977611356
"1378",9.97422805626424e-06
"1379",0.0162825205141894
"1380",1.16929672611121e-08
"1381",1.98922864957929e-07
"1382",0.0964795420036519
"1383",0
"1384",0
"1385",0
"1386",0
"1387",0
"1388",0
"1389",0
"1390",0
"1391",0
"1392",1.88737914186277e-15
"1393",5.76954917175243e-09
"1394",1.63239265185133e-05
"1395",0
"1396",0
"1397",0
"1398",0.0340058407938997
"1399",8.72923565653494e-08
"1400",0.0013236464808648
"1401",0
"1402",0
"1403",0
"1404",0
"1405",1.92595828683029e-05
"1406",0.00604612084102651
"1407",0.00627638098942696
"1408",1.22763301746431e-08
"1409",0.00238490141439629
"1410",3.24007272012317e-07
"1411",0
"1412",2.97366543422495e-06
"1413",5.34539146279656e-09
"1414",3.33960011762446e-05
"1415",0
"1416",0
"1417",1.19586562874474e-11
"1418",0
"1419",0.00732892975977972
"1420",0
"1421",0
"1422",0
"1423",1.3943007655115e-06
"1424",0.000206891027641265
"1425",0.000102887799253826
"1426",8.34462000195435e-05
"1427",0
"1428",0.192978425513432
"1429",0
"1430",0
"1431",0
"1432",0
"1433",0
"1434",2.0520370069832e-08
"1435",6.14806119081379e-05
"1436",0.000282931581609858
"1437",0.00148694515311731
"1438",0.0253149486667211
"1439",0.0328232887667463
"1440",8.72828077297383e-05
"1441",4.29799603129943e-07
"1442",0
"1443",0
"1444",0
"1445",0
"1446",7.00550728538474e-14
"1447",0.000328120875750071
"1448",3.61662440107047e-07
"1449",0.000599158355117368
"1450",0
"1451",0
"1452",0.000440072329009111
"1453",0.000234646710782216
"1454",0.0316876164163701
"1455",0.0269995037118068
"1456",0.0227768533108553
"1457",0
"1458",0
"1459",4.48754726577461e-05
"1460",0
"1461",0
"1462",2.70091682996743e-06
"1463",0
"1464",0.277536042697054
"1465",6.21809048695354e-09
"1466",8.19344592173366e-14
"1467",0
"1468",0
"1469",0
"1470",0
"1471",0
"1472",0
"1473",0
"1474",0.00172435537923521
"1475",0
"1476",2.55351295663786e-15
"1477",0
"1478",0
"1479",0.0168730909201619
"1480",2.42664777161394e-11
"1481",0.0758980704928429
"1482",0
"1483",0
"1484",0.000173897759347841
"1485",0
"1486",0
"1487",0
"1488",0
"1489",0
"1490",0.21816325355417
"1491",0
"1492",0
"1493",0
"1494",0
"1495",0
"1496",0
"1497",0
"1498",0
"1499",0
"1500",0
"1501",0
"1502",0
"1503",0
"1504",0
"1505",0
"1506",0
"1507",0
"1508",0
"1509",4.44089209850063e-15
"1510",0
"1511",0
"1512",0
"1513",0
"1514",0
"1515",0
"1516",0
"1517",0
"1518",0
"1519",0
"1520",0
"1521",2.25325202940496e-10
"1522",0.134925702409091
"1523",0.333473020587783
"1524",0.449266466455758
"1525",0.623952703398175
"1526",0.103501680093041
"1527",0
"1528",0
"1529",0
"1530",0
"1531",0.000148937301886032
"1532",0.618501993314475
"1533",0
"1534",2.22044604925031e-16
"1535",8.749229342353e-06
"1536",0.748410112914998
"1537",0.456897718407687
"1538",0.600884338078295
"1539",0.647413919817943
"1540",0.241200916160911
"1541",0
"1542",2.77028400219592e-11
"1543",0.0541207037810802
"1544",0.032345011349838
"1545",0.00232669613698222
"1546",0.0138059654676768
"1547",0.41914561331627
"1548",0.0164464656547272
"1549",1.52624455510564e-05
"1550",0.291445328947951
"1551",0.801861493788119
"1552",0.442536717971048
"1553",0
"1554",0
"1555",0.284424026820408
"1556",1.24341945240136e-06
"1557",0.32071736197372
"1558",0
"1559",0.0706977257330624
"1560",0.0195339787565968
"1561",0.365019947175083
"1562",0.219283907533204
"1563",0
"1564",0
"1565",4.77636008522353e-09
"1566",0.482653160500599
"1567",0.57957603087097
"1568",5.36985003831703e-05
"1569",0.0178328657945412
"1570",0.883543609979855
"1571",0.668632149336541
"1572",0.000175000216880106
"1573",0
"1574",8.88178419700125e-15
"1575",1.87736514223324e-07
"1576",1.19119105945753e-05
"1577",0.465294063514083
"1578",0
"1579",9.53894797919297e-05
"1580",0.00565372569948674
"1581",0
"1582",0.240081137987654
"1583",0.58855482655537
"1584",0.188016151785215
"1585",0.452098327213315
"1586",0.000951395482774897
"1587",5.61609092564197e-10
"1588",0.000242766261431937
"1589",5.15954913238303e-08
"1590",0.0548362761901022
"1591",2.22197785464395e-05
"1592",0
"1593",0.0299684355365062
"1594",0.0510583645947698
"1595",0.000168432996483725
"1596",0.00181773495046123
"1597",3.75080085768253e-07
"1598",0
"1599",0.585305290634693
"1600",1.09072891119055e-06
"1601",3.45726382078304e-07
"1602",0
"1603",0
"1604",0
"1605",0.140260522719033
"1606",0.000333350425498646
"1607",0
"1608",1.8077634244662e-05
"1609",9.93765853833928e-05
"1610",0
"1611",0
"1612",0
"1613",0
"1614",0
"1615",0.310435581573764
"1616",0.372903604437524
"1617",1.48510497566257e-07
"1618",0
"1619",0
"1620",0.0346876655110623
"1621",0.000755356363279058
"1622",5.32907051820075e-15
"1623",0.00441436331725886
"1624",0.23078440266255
"1625",0.0113636593974015
"1626",8.85607776002217e-09
"1627",0
"1628",0
"1629",8.45875708540555e-05
"1630",0.00786825302922411
"1631",0
"1632",0.00376463135781346
"1633",0
"1634",0
"1635",2.9106875204632e-05
"1636",2.18713935851156e-14
"1637",0.120014881612229
"1638",0.0259594745585167
"1639",0
"1640",0
"1641",7.50401373073029e-06
"1642",0
"1643",1.5991050549613e-05
"1644",4.77395900588817e-15
"1645",0.618974492963604
"1646",0.0381950234830628
"1647",4.51017299207823e-06
"1648",0.0509738112544424
"1649",0.237043067871189
"1650",0
"1651",0
"1652",0
"1653",0.575599414927233
"1654",0.000200506873361483
"1655",0.00119734528388271
"1656",1.31757165067192e-06
"1657",0.00100010824709151
"1658",0
"1659",0.00254013346782456
"1660",3.32979293387048e-05
"1661",2.59226506539312e-05
"1662",0.521688062922563
"1663",0
"1664",0
"1665",0
"1666",0
"1667",0.0250177868851638
"1668",0
"1669",0.0167050958998205
"1670",0.0611747856488284
"1671",1.66533453693773e-15
"1672",4.06185538563975e-05
"1673",0.0817054165220077
"1674",0.371119929166826
"1675",5.10028025924036e-07
"1676",4.48090193927442e-06
"1677",0
"1678",0
"1679",2.64271085947954e-06
"1680",0
"1681",0
"1682",0
"1683",0
"1684",0
"1685",0
"1686",0
"1687",0
"1688",0
"1689",0
"1690",1.46660461552983e-13
"1691",3.97601321866503e-08
"1692",0
"1693",0
"1694",2.28472150642922e-07
"1695",0
"1696",0
"1697",0
"1698",0
"1699",0
"1700",0
"1701",2.20974911524507e-06
"1702",0
"1703",0
"1704",2.88435941797616e-13
"1705",0
"1706",1.93864421360601e-06
"1707",0
"1708",0
"1709",0.594614787121334
"1710",0
"1711",0
"1712",0
"1713",1.11022302462516e-16
"1714",0
"1715",5.77782989330533e-05
"1716",0
"1717",0.0616342214223293
"1718",0.833877910095544
"1719",0.0414345935725368
"1720",0.0518605440632227
"1721",4.40279845914660e-09
"1722",0.283471736316154
"1723",0.182315656239802
"1724",0.343664305633221
"1725",0.0147017938583832
"1726",0.0134386531622374
"1727",0.618898664188661
"1728",0.0552999146097992
"1729",0.167667395003424
"1730",0.670834147401842
"1731",0.181336238943314
"1732",0.068830431793067
"1733",0.235434056033914
"1734",0.0168047517560589
"1735",0.572643203467407
"1736",0.351742846889676
"1737",0.168150352489421
"1738",0
"1739",0.246837852731512
"1740",0.410079506225117
"1741",0.00850097668692196
"1742",0.00162977287591581
"1743",0.511270173289914
"1744",0
"1745",0.207126309773179
"1746",0
"1747",0.00110815113240637
"1748",0
"1749",0
"1750",0
"1751",1.34103839144473e-12
"1752",0.000734838787518899
"1753",0.522877853062401
"1754",0.000615765546119196
"1755",0.0267322847883905
"1756",0.00226708062639047
"1757",0.0363251430889142
"1758",0.0212364732728162
"1759",0.00663404542827539
"1760",0.55581066752194
"1761",0
"1762",0.0195277296352214
"1763",0.000407763233796432
"1764",0.000692255440338463
"1765",0
"1766",0
"1767",0
"1768",0.0433069918439896
"1769",0
"1770",0
"1771",0.0335094182553257
"1772",0.00854723219326214
"1773",0
"1774",0.0663447186255888
"1775",0.465951408038548
"1776",0.0119262726079227
"1777",0.0367586306162418
"1778",0.00175660505776576
"1779",7.19416441519183e-05
"1780",8.69735893416212e-07
"1781",1.75719019726017e-05
"1782",1.37977895775521e-08
"1783",0.148598243454804
"1784",6.30440892090967e-06
"1785",0.166234578076302
"1786",0.00034890239687313
"1787",0.000283378051203376
"1788",0.000505904959599901
"1789",5.42832905845447e-05
"1790",0.012678243079761
"1791",2.23819675349013e-07
"1792",0.0131718477522954
"1793",5.63588606639076e-06
"1794",0.000262087037636527
"1795",0.000310607958554643
"1796",0.00500624852010112
"1797",8.27858659402381e-09
"1798",6.37092523623206e-05
"1799",0.0730554849104139
"1800",0
"1801",0.0949497942151489
"1802",0
"1803",0
"1804",0
"1805",0
"1806",2.1094237467878e-15
"1807",0
"1808",5.32386734697354e-09
"1809",0
"1810",0
"1811",0.301802117182151
"1812",0.079032794385863
"1813",0.000393164327550988
"1814",0.00317790652577499
"1815",0.240418819239242
"1816",0.00699866896222723
"1817",0
"1818",0.000840616796715987
"1819",0.397926461543283
"1820",0.00583384865287728
"1821",0.242218272824439
"1822",2.88238559131848e-07
"1823",0.000275195618236634
"1824",1.43925559836777e-06
"1825",0.00142014676614632
"1826",0.00211670419115983
"1827",0.0233980548842575
"1828",0
"1829",0.0230281292391417
"1830",0.879603700492132
"1831",0.00337504219451978
"1832",0.00102909427148445
"1833",0.00638197344607117
"1834",0.000157534553612448
"1835",1.22124532708767e-15
"1836",0
"1837",0.000653075630030031
"1838",0.078792670306433
"1839",0.000262515129356267
"1840",0.000435915653810293
"1841",0.038250627513015
"1842",1.51770278844499e-06
"1843",0
"1844",0
"1845",1.61004089060945e-07
"1846",0
"1847",0.070650422269629
"1848",0.0186071357397908
"1849",0.0508726852992329
"1850",0.0015683206401137
"1851",0.036014353324003
"1852",2.11701331687131e-06
"1853",0.0708646607539467
"1854",6.77236045021345e-14
"1855",0.100233741155002
"1856",0.16226456676137
"1857",0.126063529615976
"1858",0.50981757545502
"1859",0.00232711040444733
"1860",0.0154192441307005
"1861",0.302960894557451
"1862",0
"1863",0
"1864",0
"1865",0
"1866",4.7552994875133e-10
"1867",0
"1868",0
"1869",0
"1870",9.32938188924481e-08
"1871",0.0131537163609564
"1872",7.01668574354386e-08
"1873",0
"1874",0.0380043256485431
"1875",0.736989768210574
"1876",0
"1877",6.63307163273341e-06
"1878",0
"1879",0
"1880",0
"1881",0
"1882",0
"1883",0.0187764979496645
"1884",0
"1885",0.0118906558231503
"1886",0
"1887",0.000994905291541559
"1888",0
"1889",0
"1890",0
"1891",0
"1892",0
"1893",0
"1894",7.0787342104639e-06
"1895",8.62876436968918e-12
"1896",0
"1897",0
"1898",0
"1899",0
"1900",0
"1901",0.243122194012798
"1902",0
"1903",0.042054815028611
"1904",3.35649898430823e-07
"1905",0
"1906",0
"1907",2.00028882346714e-12
"1908",0.00178632260692013
"1909",6.3201002674651e-06
"1910",0.257610620415832
"1911",5.92745917173954e-05
"1912",0.00300395283028398
"1913",0.0266207117794551
"1914",0.00356386167717437
"1915",0
"1916",0.00671176873875989
"1917",0.000153686727638824
"1918",0.000542649281080942
"1919",8.70592793525971e-05
"1920",1.90425836651409e-05
"1921",0.0138525864282465
"1922",8.88178419700125e-16
"1923",0.00041258304544467
"1924",0.0452102092797364
"1925",0.000595179978931215
"1926",4.87922884873093e-07
"1927",0.000917291382538266
"1928",1.45164485700899e-05
"1929",0.000269753876401047
"1930",2.48688504765893e-05
"1931",0.0788209113305004
"1932",4.42534897615587e-13
"1933",0.00938350232118901
"1934",0.114651317338734
"1935",0.00196698362129466
"1936",0.000304179308138641
"1937",0
"1938",0.00708912078119561
"1939",0
"1940",0
"1941",0
"1942",0
"1943",0
"1944",0
"1945",0
"1946",0
"1947",5.10702591327572e-15
"1948",1.01031915167304e-06
"1949",0.0169572272575147
"1950",4.40555034564305e-07
"1951",0.00137359492983047
"1952",0.0383236047190939
"1953",0.204153364148218
"1954",0
"1955",0
"1956",0
"1957",0.000525812892575916
"1958",0
"1959",0.0196085032207979
"1960",0.301161051932552
"1961",0.000125796586433524
"1962",1.12010400954432e-12
"1963",0.435976452585531
"1964",0.0294861092220022
"1965",0.782812497555546
"1966",0.243893644411099
"1967",0.00242183663561657
"1968",1.11022302462516e-16
"1969",1.43773881688958e-12
"1970",0.140386132357848
"1971",0.0327143570402743
"1972",0
"1973",3.70075584177343e-07
"1974",0.0207733270814827
"1975",0
"1976",0
"1977",0
"1978",0
"1979",0
"1980",1.27130117544283e-09
"1981",6.99402793545856e-05
"1982",0
"1983",0.00246634603963025
"1984",0.172386208180259
"1985",0.0255901637120179
"1986",0.00464072322746656
"1987",0.0719159742025556
"1988",0.00485011210690822
"1989",0.00991684939685755
"1990",0.00166246121095226
"1991",0.911761133479407
"1992",0.354394508561606
"1993",0.4002061106022
"1994",7.57716762550542e-05
"1995",0.0293700231292836
"1996",3.44588801937107e-11
"1997",0.0945948747351689
"1998",0.143623487223379
"1999",0
"2000",0.404877694621393
"2001",0.736793715787962
"2002",0.563092138572823
"2003",0
"2004",0.024618784043811
"2005",0.155555510319456
"2006",1.15907987985331e-06
"2007",0.00683001217257406
"2008",0.671608318335526
"2009",0.00774922324763061
"2010",6.21724893790088e-14
"2011",0
"2012",0
"2013",2.55351295663786e-15
"2014",0.00143377793165311
"2015",0.00687534237682252
"2016",0.844130763217458
"2017",0.014006173961482
"2018",0.415098858591751
"2019",0.00681133922133026
"2020",0.0124314698704073
"2021",0.0293573285544956
"2022",0.494270168169136
"2023",0
"2024",0.416419386586988
"2025",0
"2026",0
"2027",2.06902273092169e-11
"2028",0.204482554651615
"2029",0.0102403395641867
"2030",0.0404828324267152
"2031",0.121092195766533
"2032",0.80730072900225
"2033",0
"2034",0
"2035",0.00377356978323462
"2036",0.533482068817545
"2037",0.0310630437790821
"2038",0.0145464440644005
"2039",0
"2040",2.56461518688411e-14
"2041",0.724143935056572
"2042",8.77609639760024e-06
"2043",0.392659185358265
"2044",7.72102646129369e-06
"2045",0
"2046",2.96055402415618e-11
"2047",0
"2048",0
"2049",4.13258316456222e-12
"2050",0.000459838245430721
"2051",0.000197443900378347
"2052",1.0502709812954e-12
"2053",5.14974156651249e-08
"2054",0
"2055",0.000219064264913027
"2056",0
"2057",0
"2058",0
"2059",4.31146861545884e-08
"2060",1.64385133587519e-05
"2061",4.48960625953898e-05
"2062",0.0137327785997424
"2063",1.02997491646661e-07
"2064",0.0434316044680408
"2065",0
"2066",2.59254839818368e-10
"2067",1.48156120149956e-07
"2068",0
"2069",0
"2070",0
"2071",0
"2072",0
"2073",3.95657673559757e-05
"2074",0
"2075",0
"2076",4.11553147117161e-09
"2077",0.000275847014431729
"2078",7.7715611723761e-16
"2079",0
"2080",0.00188660193900436
"2081",0
"2082",6.87436255697449e-08
"2083",0
"2084",3.23518989375771e-13
"2085",2.41576372239649e-08
"2086",7.65394316204482e-06
"2087",3.4621949713487e-05
"2088",0.0121996543114677
"2089",0.00449389616188245
"2090",0.272682644849964
"2091",0
"2092",1.66533453693773e-15
"2093",0.226737539032253
"2094",5.10202990966491e-12
"2095",0
"2096",0.0795439936795233
"2097",0
"2098",0
"2099",0.419625203996348
"2100",0
"2101",0.945637454174911
"2102",0
"2103",0.00119901998205163
"2104",0.00117085615882451
"2105",1.62371030409947e-05
"2106",0
"2107",0
"2108",0
"2109",0.873268161900646
"2110",0.320155089882176
"2111",0.468222291949689
"2112",0.151329489015008
"2113",4.94940077677697e-06
"2114",0.287970687700687
"2115",0
"2116",0
"2117",0.24541778215808
"2118",0.221309504338859
"2119",4.0645264931527e-13
"2120",0
"2121",3.9763402237547e-08
"2122",3.56382449512305e-05
"2123",0
"2124",0
"2125",8.23108943205364e-05
"2126",0
"2127",0
"2128",2.63804619193841e-06
"2129",0
"2130",0.0191375695088629
"2131",2.90165571815715e-05
"2132",0.732054936042861
"2133",2.17956852804901e-05
"2134",0.138164376803612
"2135",0
"2136",0
"2137",0
"2138",0
"2139",0
"2140",0.000331044262211422
"2141",0
"2142",0
"2143",0
"2144",0
"2145",0
"2146",0
"2147",5.55111512312578e-16
"2148",0
"2149",0
"2150",0
"2151",0
"2152",0
"2153",0
"2154",0
"2155",5.42852651719272e-09
"2156",0
"2157",8.60046882389387e-05
"2158",0
"2159",0.00341953808442286
"2160",6.01735217209409e-10
"2161",0
"2162",0.00453503266853583
"2163",0.0288838315575777
"2164",3.34987593220148e-12
"2165",0.0337564659127455
"2166",2.85557593016073e-06
"2167",0.00197730046545219
"2168",0.0036173305681626
"2169",0.0175016565615302
"2170",0
"2171",0
"2172",0.608779741599661
"2173",0.523147420214135
"2174",0.20666386053735
"2175",0.0297025115194456
"2176",5.17278862421922e-06
"2177",0.421063270911363
"2178",0.471527367216421
"2179",4.98538770155044e-07
"2180",0
"2181",0.214004078353568
"2182",0
"2183",0
"2184",0
"2185",0.0714084157072433
"2186",0.210588571501801
"2187",0.00177102205608559
"2188",0
"2189",0.00934126502746013
"2190",0.244268688687396
"2191",0.00146649128366239
"2192",7.68792360883452e-08
"2193",0
"2194",0.0963075717313079
"2195",0.00228419365183863
"2196",0.000113515888854998
"2197",0.00175692099913582
"2198",6.97972881792408e-05
"2199",2.77184842856215e-07
"2200",0.00694761377483522
"2201",0.0113369840007789
"2202",0
"2203",0
"2204",0.00144828751564352
"2205",0.00111304620293606
"2206",2.77555756156289e-14
"2207",7.28054005860734e-07
"2208",0
"2209",0.0380249974317758
"2210",0
"2211",0.000217611945019125
"2212",0.0772151853149819
"2213",0.00034004233427698
"2214",0
"2215",0
"2216",0.140321402858578
"2217",0.384828050880199
"2218",6.81745859765215e-09
"2219",3.10862446895044e-15
"2220",0
"2221",0
"2222",0.0503563033604413
"2223",3.55396606880332e-05
"2224",0.000960891379241602
"2225",0.212872239170693
"2226",2.61395121516905e-05
"2227",0.0758545480113227
"2228",9.52573086946407e-05
"2229",0.186036240379756
"2230",7.14826879910646e-08
"2231",0
"2232",0.000878221831957071
"2233",0.000399867599313986
"2234",2.19740786677747e-08
"2235",3.39792928472082e-06
"2236",2.57459476182831e-07
"2237",0
"2238",2.97086734102336e-08
"2239",0.000182402076116861
"2240",0.000268514761774141
"2241",1.18398731256963e-05
"2242",0.00043273430169799
"2243",0.00110374607455432
"2244",4.03392315969642e-05
"2245",6.30183206173918e-07
"2246",6.70596178586891e-08
"2247",6.26267051495599e-06
"2248",0.00304134337217965
"2249",0.0136100224141952
"2250",0.000414078283356822
"2251",0.00205364886381565
"2252",2.41204295237107e-06
"2253",1.15160759817101e-08
"2254",0
"2255",0.000101176360467692
"2256",2.96106472674751e-11
"2257",3.12802639874654e-05
"2258",0
"2259",0.00697879162948034
"2260",1.7067569579865e-11
"2261",0.000393529630443146
"2262",1.85974902144892e-10
"2263",5.47858756982933e-06
"2264",0.00161226419940752
"2265",0.00102441120259067
"2266",1.27479482525672e-09
"2267",8.18749248260309e-05
"2268",1.28035995694553e-07
"2269",0.0030807050072359
"2270",0.00146281538257353
"2271",5.29309997091554e-05
"2272",0.000143675695226109
"2273",0.00218269005028704
"2274",0.00683173705065143
"2275",9.11424202776345e-09
"2276",7.4901500408675e-06
"2277",0
"2278",0.0464244638940657
"2279",8.31051584273546e-05
"2280",0
"2281",0
"2282",0.133952343564345
"2283",4.28439997557373e-06
"2284",0.0445889978405806
"2285",3.53315777390506e-05
"2286",0
"2287",6.38762646265612e-06
"2288",0
"2289",0
"2290",0.000277474330302674
"2291",0.0012349508334939
"2292",1.45394807304911e-12
"2293",0.000621541685576044
"2294",0
"2295",0
"2296",0.0562922885400473
"2297",4.71135958071134e-05
"2298",0.00108732857982652
"2299",0
"2300",0
"2301",0
"2302",0
"2303",0
"2304",0
"2305",4.44089209850063e-16
"2306",1.77296147892969e-05
"2307",2.06937178770517e-05
"2308",1.0939241712471e-07
"2309",3.01130952395923e-08
"2310",0
"2311",0
"2312",0
"2313",1.82117876335042e-10
"2314",0
"2315",0
"2316",2.26606515996153e-07
"2317",0.0554189473159991
"2318",0
"2319",0
"2320",0
"2321",0.0213587827275475
"2322",5.24035198568029e-08
"2323",4.67107563739688e-08
"2324",4.55957920459937e-05
"2325",1.33686417491674e-08
"2326",0
"2327",0
"2328",0
"2329",0
"2330",0
"2331",0
"2332",0.000166970128092858
"2333",6.26297003081255e-06
"2334",0
"2335",0
"2336",0.00401284728949747
"2337",1.166665135377e-05
"2338",1.30929220576448e-07
"2339",0
"2340",0
"2341",0
"2342",0
"2343",0
"2344",0
"2345",3.25248716848137e-11
"2346",9.16135909334592e-06
"2347",5.90474957817833e-09
"2348",0.00380792903924565
"2349",0.000101575478912319
"2350",1.68465241756621e-12
"2351",0.0068463616491139
"2352",0
"2353",0
"2354",0
"2355",0
"2356",1.47640788483727e-11
"2357",0
"2358",0
"2359",0
"2360",1.75808090308038e-09
"2361",0
"2362",0
"2363",5.22188671192581e-08
"2364",7.96609445075092e-11
"2365",0
"2366",0
"2367",0
"2368",2.10133699141135e-06
"2369",0.472136580893201
"2370",1.19066767600984e-06
"2371",0.00108586920578968
"2372",3.02023905884852e-09
"2373",0
"2374",0
"2375",0
"2376",0
"2377",0
"2378",0
"2379",0
"2380",0
"2381",0
"2382",1.4477308241112e-12
"2383",5.304645611659e-13
"2384",0
"2385",0
"2386",0
"2387",0
"2388",0
"2389",0
"2390",0
"2391",0
"2392",0
"2393",0
"2394",0
"2395",7.21891908805894e-07
"2396",3.06277225803342e-12
"2397",0
"2398",0
"2399",0
"2400",0
"2401",0
"2402",0
"2403",2.88657986402541e-15
"2404",0
"2405",0
"2406",9.62308011054347e-12
"2407",6.18394224716212e-14
"2408",4.80064077379438e-09
"2409",0
"2410",0
"2411",8.88178419700125e-16
"2412",0.00295655545207973
"2413",0
"2414",5.25801624462474e-13
"2415",0
"2416",0
"2417",0
"2418",0
"2419",0
"2420",0
"2421",0
"2422",0.00317533915627621
"2423",0.0405906996905832
"2424",9.90807435323759e-05
"2425",6.17656080553752e-05
"2426",1.41643474727005e-10
"2427",0.031140453948546
"2428",0.000678666126931238
"2429",1.05249142734465e-13
"2430",2.65343302885412e-14
"2431",0
"2432",0.0511258995738412
"2433",9.78410763519122e-09
"2434",0
"2435",0
"2436",0
"2437",0.0348677899250703
"2438",1.32077526582286e-07
"2439",6.85840273462190e-11
"2440",4.29883089803074e-06
"2441",0
"2442",7.03069506635678e-06
"2443",0.00614808724042526
"2444",5.75770173982804e-07
"2445",0.00741329656322998
"2446",1.49917892100504e-07
"2447",0.000505353469328229
"2448",2.11408668349122e-12
"2449",0.00334742131966326
"2450",0
"2451",2.22044604925031e-16
"2452",0
"2453",3.26598629729613e-06
"2454",2.72867637747254e-05
"2455",0
"2456",0
"2457",0
"2458",0
"2459",0.000137148665633968
"2460",0
"2461",0
"2462",0
"2463",5.57136202394837e-07
"2464",0.000268014984713294
"2465",0
"2466",0
"2467",0
"2468",0
"2469",0.0164125839851504
"2470",0.0335360766944043
"2471",0
"2472",1.47143602857724e-08
"2473",0.132091107412283
"2474",0.000294553155547939
"2475",1.94821936361222e-12
"2476",0.00940811639752781
"2477",5.56328316747567e-11
"2478",0
"2479",0
"2480",7.19875763444122e-08
"2481",0
"2482",0
"2483",0.00132443068637367
"2484",0.00558113795952819
"2485",6.78601619341634e-12
"2486",4.0538371548493e-09
"2487",0
"2488",0
"2489",0
"2490",0
"2491",0
"2492",0
"2493",0
"2494",1.56898316561183e-09
"2495",0
"2496",0
"2497",0.038510296475249
"2498",0.0375003412662134
"2499",0.000237002065124559
"2500",0.000740558681321835
"2501",0.021063820038091
"2502",0
"2503",0
"2504",0
"2505",0.00658515748534272
"2506",0.207938401026582
"2507",0.109168325776661
"2508",0.558412816656527
"2509",0.26125965675194
"2510",0.0559262398653017
"2511",0
"2512",0.0028641280505991
"2513",0
"2514",0
"2515",0
"2516",0.011104483964205
"2517",0
"2518",0
"2519",0
"2520",0.0420953621414788
"2521",1.03209396924431e-05
"2522",0.223730263444289
"2523",0
"2524",2.94445579029912e-11
"2525",0.0350762764399158
"2526",4.40112215082111e-05
"2527",0
"2528",1.39479033578471e-06
"2529",2.92991698338518e-05
"2530",0
"2531",0
"2532",0
"2533",0
"2534",0
"2535",0
"2536",0.564112334621447
"2537",0
"2538",0
"2539",0.0562975909444547
"2540",0
"2541",0
"2542",0.0888700134777655
"2543",4.48231451954939e-11
"2544",0.0803695278448499
"2545",0
"2546",0.015422612034324
"2547",0.00725779179825181
"2548",0.000140089810241606
"2549",9.37400794470689e-05
"2550",1.11022302462516e-16
"2551",0.000137650499165143
"2552",7.54951656745106e-15
"2553",0.0595591542181306
"2554",0.208830817239174
"2555",0.0156819269466951
"2556",0.00123210088220049
"2557",2.07089945197803e-05
"2558",1.603534773853e-07
"2559",0.181915262871357
"2560",0.321061235993615
"2561",0.00183539282595913
"2562",0.0440187964962866
"2563",0.944036486817269
"2564",0.467655602560143
"2565",0.16287723956224
"2566",0.00686285274164256
"2567",0.000155945793490542
"2568",0.0136213283617116
"2569",0
"2570",0
"2571",0
"2572",0
"2573",2.13424066752843e-07
"2574",0
"2575",0
"2576",0
"2577",0
"2578",0.00129613828355468
"2579",1.01479170622198e-08
"2580",0.00700828591774749
"2581",1.27014304407425e-07
"2582",0.0913400059657085
"2583",0.0948027453007747
"2584",0.000596266200451501
"2585",5.93725069109041e-12
"2586",0.0254209591483813
"2587",3.22760296267433e-09
"2588",0
"2589",8.18665289292753e-05
"2590",7.2107564740409e-05
"2591",1.90837878532024e-05
"2592",3.72652177930144e-05
"2593",0.0075635591395542
"2594",0.00521843990798998
"2595",0.0904906785861552
"2596",3.17743409916638e-06
"2597",0.0588425516506578
"2598",3.5333884415345e-05
"2599",0
"2600",2.63979872864306e-05
"2601",0.000154143189145528
"2602",1.40574107909686e-10
"2603",8.78433909856646e-06
"2604",0.489464112267775
"2605",0.00805328705985819
"2606",0
"2607",0
"2608",0.311575038068447
"2609",6.10538719647558e-06
"2610",0.22127539954402
"2611",0.000531966219111335
"2612",1.32681377338351e-05
"2613",0.139324740163176
"2614",2.79646218201979e-05
"2615",2.53194004651291e-08
"2616",0
"2617",0
"2618",0.000775135682948513
"2619",7.33944982567181e-09
"2620",0
"2621",8.00156834519505e-05
"2622",5.7411104960825e-05
"2623",0.000686619717121917
"2624",0.140572451999224
"2625",0.000264335713211383
"2626",0.154265066020157
"2627",0.00311474929916011
"2628",0.0364135869582808
"2629",0.0321979811807521
"2630",0
"2631",0
"2632",0
"2633",4.16486504598579e-05
"2634",2.64389932957965e-06
"2635",1.11022302462516e-16
"2636",2.86960455397889e-11
"2637",0
"2638",0
"2639",0
"2640",0
"2641",0
"2642",0.00231627623214414
"2643",0
"2644",0.00179157533104679
"2645",0.0278986548068334
"2646",0
"2647",0
"2648",0.0359603055875295
"2649",0
"2650",0.00331699282391229
"2651",0.719653403199032
"2652",0.000366958410445761
"2653",0.115494454528789
"2654",0
"2655",1.69241065606229e-10
"2656",1.65101265992007e-12
"2657",0
"2658",0.0196636250852036
"2659",0
"2660",0
"2661",5.57331958361829e-14
"2662",0.0740173798291773
"2663",0
"2664",0
"2665",0.0444189450164767
"2666",0
"2667",0.00021489793241436
"2668",0.0782191198866108
"2669",0
"2670",0
"2671",0
"2672",0.00478569957537411
"2673",0
"2674",0.217779324016983
"2675",0
"2676",0
"2677",0
"2678",0
"2679",0
"2680",0
"2681",0
"2682",0
"2683",0
"2684",0
"2685",0
"2686",0.0201715490908045
"2687",0.145862056542164
"2688",0
"2689",2.89713760870391e-07
"2690",5.44338760700702e-05
"2691",0.00105399014456342
"2692",3.98346586050202e-05
"2693",0.455647394009753
"2694",0
"2695",5.43803557739864e-10
"2696",0
"2697",0.0424305176670935
"2698",0.00126672298925445
"2699",0.301563933180224
"2700",0
"2701",0.072308991659278
"2702",1.18222656320111e-06
"2703",0.0694321716197925
"2704",1.78183021442013e-05
"2705",5.97040541117089e-07
"2706",0.00926262267753897
"2707",0.00795783896694313
"2708",8.97867335369895e-07
"2709",3.27048499393356e-10
"2710",0.00125221935532804
"2711",0
"2712",0.00745328377098531
"2713",1.39649847241685e-10
"2714",0
"2715",0.0306190597436271
"2716",1.70596869963902e-12
"2717",4.72643496784997e-07
"2718",1.11022302462516e-16
"2719",2.24278192906269e-07
"2720",1.62650970273459e-05
"2721",0.00666724964868426
"2722",0.00570975198412027
"2723",5.0646178486935e-05
"2724",1.02695629777827e-13
"2725",0.153848569405031
"2726",0.000256582481575784
"2727",0.00887420954782103
"2728",0.0200486879610863
"2729",4.31674559431272e-07
"2730",3.17226698203221e-05
"2731",0.000559081401186878
"2732",3.80596665294775e-10
"2733",1.38482648681659e-08
"2734",6.94371526943627e-09
"2735",1.13818383973285e-06
"2736",0
"2737",0.00019525739273385
"2738",0
"2739",5.20877445620016e-08
"2740",8.6140539146129e-11
"2741",3.71289697711497e-05
"2742",1.44524392453604e-11
"2743",8.27760082700024e-12
"2744",2.57259883348349e-05
"2745",0.0403499893411272
"2746",2.56145616894798e-06
"2747",5.36518804050701e-07
"2748",0
"2749",0
"2750",0.0034223542602756
"2751",0.000202560110665995
"2752",0
"2753",0
"2754",2.57624547839175e-06
"2755",9.89519244715131e-05
"2756",0
"2757",0.000105910549780708
"2758",0.00108830850003594
"2759",4.02167862789682e-07
"2760",0.230094522458502
"2761",8.16886549015461e-06
"2762",0
"2763",2.21553449786249e-06
"2764",1.5395046215616e-06
"2765",2.85151458001565e-10
"2766",0
"2767",0
"2768",0
"2769",1.24002460739625e-05
"2770",0.00177070473701502
"2771",9.36053871181119e-06
"2772",0.0683890931676161
"2773",0
"2774",0
"2775",0
"2776",9.06829256130948e-09
"2777",1.82964754458226e-11
"2778",0
"2779",5.82621475211376e-05
"2780",0.000777721085957861
"2781",0
"2782",8.74908112624695e-09
"2783",0
"2784",1.80335032049506e-05
"2785",0
"2786",0
"2787",0
"2788",0
"2789",0.0696622577632213
"2790",0.0189344990509738
"2791",0
"2792",0
"2793",0.0139385095654042
"2794",0.010356956851112
"2795",0
"2796",1.08670186182991e-08
"2797",0.016437947803996
"2798",0.0399682268347235
"2799",3.35949622454201e-07
"2800",0.00103191898120736
"2801",0
"2802",0
"2803",0.129711682530276
"2804",0
"2805",1.62754904409201e-06
"2806",0.00042093627240003
"2807",3.90569283448272e-06
"2808",4.77935468978785e-11
"2809",8.18299872307193e-11
"2810",7.17840748324372e-05
"2811",0.00437896040161156
"2812",0
"2813",0
"2814",1.17096552565421e-07
"2815",2.00836607344712e-07
"2816",0
"2817",0.00324282616651161
"2818",0.000100661610489272
"2819",0.000252757293754624
"2820",0.00852602911279654
"2821",1.15851772619635e-12
"2822",0
"2823",5.5151024523914e-06
"2824",4.1599520606006e-08
"2825",7.58888232649246e-05
"2826",0.000756650231341194
"2827",1.26864561078577e-08
"2828",0
"2829",1.09292169536701e-07
"2830",3.40351302696718e-10
"2831",0
"2832",0
"2833",0
"2834",0
"2835",0
"2836",0
"2837",0
"2838",0
"2839",1.88061488382019e-07
"2840",3.86535532814758e-06
"2841",0.0230183773273702
"2842",0.000398902387243383
"2843",7.29850933023357e-07
"2844",0.00120909983745421
"2845",2.42039668307825e-08
"2846",2.93179101773511e-07
"2847",6.43929354282591e-14
"2848",4.47388645241631e-05
"2849",0.0140843123592963
"2850",0.340289289925205
"2851",0.000593162194395536
"2852",1.65806249619038e-07
"2853",3.39728245535298e-14
"2854",1.78286923723237e-05
"2855",0.0130997203037916
"2856",2.70424432069483e-07
"2857",6.21444362636225e-09
"2858",4.08870937107508e-10
"2859",1.29819444083523e-08
"2860",0
"2861",0
"2862",0
"2863",0
"2864",1.57476645168408e-07
"2865",2.22014024031658e-06
"2866",3.33066907387547e-16
"2867",0
"2868",0.00125836250613764
"2869",6.68465283126807e-13
"2870",0
"2871",0
"2872",0
"2873",0
"2874",0
"2875",0
"2876",0
"2877",0
"2878",0
"2879",0
"2880",2.22044604925031e-16
"2881",8.04359983532787e-05
"2882",0.000434128958893498
"2883",4.40768421761106e-10
"2884",2.19616826798719e-05
"2885",8.13898948237579e-11
"2886",1.8081980357465e-11
"2887",0
"2888",0
"2889",0
"2890",0.268777069117554
"2891",1.31808108871923e-09
"2892",1.0078160028737e-07
"2893",0
"2894",0
"2895",0
"2896",6.18766038407159e-09
"2897",1.92524851616582e-09
"2898",0.000365584768371563
"2899",6.67825572620018e-10
"2900",0
"2901",0
"2902",0
"2903",0.000120361423127324
"2904",0
"2905",1.14357989744462e-09
"2906",2.46454323304945e-06
"2907",0
"2908",0
"2909",2.22692353446519e-09
"2910",0.00403440409985512
"2911",3.80128956902759e-05
"2912",2.97545321714665e-11
"2913",0
"2914",0.25723489806315
"2915",0
"2916",0.0218526283958108
"2917",0
"2918",0
"2919",0
"2920",0.00165871802264894
"2921",0
"2922",0
"2923",6.77236045021345e-14
"2924",0
"2925",0
"2926",0
"2927",3.49482534311996e-06
"2928",0.00443606543148878
"2929",0
"2930",0
"2931",0
"2932",0.00106854561469738
"2933",0.112159150619201
"2934",0.0159863167479642
"2935",5.41728399916508e-08
"2936",4.96456154730485e-06
"2937",0
"2938",0
"2939",0
"2940",2.03544472965334e-06
"2941",5.48495776619973e-06
"2942",0
"2943",0
"2944",0
"2945",1.38073996680532e-11
"2946",0
"2947",1.04896517028052e-08
"2948",0
"2949",0
"2950",0
"2951",0
"2952",1.1674624154967e-05
"2953",2.03650130148336e-06
"2954",6.42469522027511e-10
"2955",0
"2956",6.11966033403633e-12
"2957",0
"2958",0
"2959",0
"2960",2.54068834351084e-05
"2961",0
"2962",1.76592381606611e-07
"2963",0
"2964",1.97448422898372e-05
"2965",0.000174148287979237
"2966",3.23185922468383e-13
"2967",8.23430201714048e-05
"2968",8.26613868465387e-08
"2969",0
"2970",1.99840144432528e-15
"2971",3.33066907387547e-16
"2972",0.00116239357286274
"2973",2.68895023768367e-05
"2974",1.9741130491413e-05
"2975",3.60156349188401e-13
"2976",1.26355146123913e-07
"2977",0
"2978",0
"2979",0.000258867416486952
"2980",7.52203127041273e-06
"2981",0.0189679210331575
"2982",8.50661735651848e-06
"2983",0
"2984",2.58602447625877e-05
"2985",0.00042443216150656
"2986",0.00913345200841642
"2987",3.59685867201698e-07
"2988",0
"2989",2.80287553477976e-06
"2990",0.000156234115540443
"2991",0.0449909792022174
"2992",1.24997556749662e-09
"2993",9.09899988021934e-07
"2994",1.23353549597027e-10
"2995",1.3710331314698e-08
"2996",0
"2997",0
"2998",0
"2999",0
"3000",0
"3001",0.00656323755319399
"3002",0
"3003",0
"3004",0.000260822419992479
"3005",0.0563061938941839
"3006",0.00586284093222378
"3007",1.11022302462516e-16
"3008",0
"3009",0
"3010",7.7715611723761e-16
"3011",0.147213008593382
"3012",0
"3013",1.10911280160053e-13
"3014",0
"3015",0
"3016",1.51889811839112e-09
"3017",0
"3018",0
"3019",3.95239396766556e-14
"3020",0
"3021",0
"3022",0
"3023",0
"3024",0
"3025",0
"3026",0
"3027",0
"3028",0
"3029",0
"3030",0
"3031",0
"3032",0.0026048614467068
"3033",0.00420394713318062
"3034",0.774182603629003
"3035",0.000380862491814016
"3036",0
"3037",0
"3038",0
"3039",0
"3040",0.0111976181980806
"3041",0
"3042",0.0026550327489403
"3043",0
"3044",0
"3045",0.0868168210670093
"3046",0.0546127012083032
"3047",0
"3048",0
"3049",0
"3050",0
"3051",0
"3052",0
"3053",2.7466373508922e-08
"3054",0
"3055",0
"3056",0.0296369088179242
"3057",0
"3058",0
"3059",0.0794121014284429
"3060",0
"3061",0.000974159719185907
"3062",0
"3063",0
"3064",0
"3065",0.0436702724483443
"3066",0
"3067",0.000139581495640084
"3068",9.72699698564838e-12
"3069",0
"3070",1.17688367939905e-08
"3071",0.00299797173944549
"3072",1.67532654415936e-13
"3073",0.000683363706654116
"3074",5.31140060333612e-06
"3075",0.0204661329560502
"3076",0
"3077",0
"3078",0.0158206304212737
"3079",0.0765994123132713
"3080",1.02090795752741e-05
"3081",0.000202551150445651
"3082",7.86685048962399e-05
"3083",5.31159288141847e-06
"3084",0.0058948789716049
"3085",2.07602872052126e-05
"3086",0
"3087",0.0136208744907576
"3088",0
"3089",0
"3090",0
"3091",0
"3092",0
