"","x"
"1",0
"2",0
"3",0
"4",3.21964677141295e-15
"5",0
"6",0
"7",0
"8",0
"9",1.55431223447522e-14
"10",0.0181596339506487
"11",0
"12",0
"13",0
"14",0
"15",0
"16",0
"17",0.518233701101312
"18",1.56071470969188e-07
"19",0.0402951842153723
"20",0.222271172973816
"21",0
"22",0.714277446170202
"23",6.68642918810747e-12
"24",0.00566485979017839
"25",0.0921365343351446
"26",0
"27",3.12665255908229e-08
"28",0.956229196725323
"29",0.000863858283227881
"30",0.00488899918283603
"31",0.115387721290251
"32",0
"33",1.10546793941069e-10
"34",0
"35",0.149235103206728
"36",0.150758495657065
"37",0.00781198375766001
"38",0.0761567018007187
"39",0.058264025479112
"40",0
"41",0
"42",0
"43",0
"44",0
"45",0.000498615207729425
"46",1.69065794697332e-09
"47",0.00123349606825629
"48",0.678227279108363
"49",0.861375009568146
"50",0.00304307267574988
"51",0
"52",2.49320466706449e-05
"53",0.252166592024808
"54",0.478253813572684
"55",8.88178419700125e-16
"56",0.000476063944410243
"57",0.793910961849036
"58",0
"59",1.11526658188588e-05
"60",0
"61",0.324769591034779
"62",0.00717874798258311
"63",0.443826308857037
"64",0.0935043825702764
"65",0.00559312988979788
"66",0.447485147244038
"67",0.000480013153575043
"68",0.00304541365555466
"69",0.128108893136908
"70",5.58743051618515e-05
"71",0.00033606849911072
"72",0.922827322410297
"73",0.0390105729482726
"74",0.65289286445524
"75",1.02140518265514e-14
"76",0.337203676829037
"77",0
"78",0.751537858544433
"79",0.211769100161226
"80",0
"81",0
"82",0
"83",0
"84",0.0155781488783937
"85",0.00104048003330204
"86",0
"87",0.148815469127617
"88",0.0190556108953727
"89",0
"90",9.36235718943523e-05
"91",0.0350884571611274
"92",0.362207748873281
"93",0.112059284515595
"94",0.0186215410937139
"95",0.00344875269611578
"96",1.14463993838854e-13
"97",0.000172251662232004
"98",4.53027143642037e-05
"99",4.39420485776054e-07
"100",0
"101",0
"102",0.0559646952903102
"103",0.00448999172506082
"104",7.7019671682943e-05
"105",0
"106",4.09745898433123e-07
"107",5.87307980026708e-14
"108",0.00824552112584331
"109",6.58883633871676e-05
"110",0.00196676791733585
"111",5.42667910607975e-10
"112",0.292044738510438
"113",8.5657592130417e-11
"114",0.0168727222922757
"115",0.0171481073178817
"116",0.123357426584584
"117",0.000150770659755994
"118",0.986990172868479
"119",0.472376181605761
"120",0.132320969008755
"121",0.000572432723538574
"122",1.86517468137026e-14
"123",2.07782679950697e-11
"124",0.00637762702442612
"125",5.06432119240507e-07
"126",0
"127",0.0169544037186342
"128",0.043734263581273
"129",0.000166592405557275
"130",0
"131",2.55351295663786e-15
"132",5.86506377353579e-07
"133",0
"134",8.47280542229933e-05
"135",0.00092783713720257
"136",5.55111512312578e-16
"137",9.2148511043888e-15
"138",0.996802488299381
"139",1.16530438076801e-07
"140",1.5674128661658e-12
"141",0
"142",6.09483075231232e-07
"143",0
"144",0.000199810485466134
"145",0
"146",0
"147",1.11022302462516e-16
"148",0.0330811664950843
"149",0
"150",5.21096906735963e-07
"151",0.240922217727321
"152",0.220645071212444
"153",3.08861071229849e-06
"154",8.27116153345742e-14
"155",0.781001561220951
"156",0
"157",0.197722248905058
"158",0.441794035525807
"159",0.000924618793603726
"160",0.0269133920686424
"161",0.0212726476504461
"162",0.0371875852818178
"163",0.984678347736612
"164",0.00403626861114681
"165",0.610395628025736
"166",1.03298480880198e-11
"167",0
"168",0.116845727174016
"169",0.0897270554112893
"170",5.25135490647699e-14
"171",0
"172",0
"173",0.679172004643761
"174",0.97507914599693
"175",0.143393002733856
"176",0.0900210620054238
"177",0.724410336084011
"178",0.232857973569462
"179",0.109987610085205
"180",0.0305511214005716
"181",7.63204333065204e-09
"182",0.110483523312823
"183",0.00311288017277866
"184",0
"185",0.00148275810322474
"186",7.93213708172313e-06
"187",0.0199139763956347
"188",0
"189",2.22044604925031e-16
"190",0.000429338050521477
"191",0.0064452912116989
"192",0.67195738885665
"193",4.17142640019019e-06
"194",0
"195",0.00659466601352665
"196",9.73126024206294e-11
"197",0.00824623300130367
"198",0.00462026400654481
"199",0.0178860145416047
"200",0.0148772884446322
"201",0.0840520660815431
"202",0
"203",0
"204",0.884098387862589
"205",0
"206",8.54107951253624e-07
"207",0
"208",0.041761288431167
"209",0.0128065379576675
"210",0.573007877174653
"211",0.837957329760489
"212",0.037057342655556
"213",0.111648757043944
"214",0.0988734984700993
"215",0
"216",0
"217",0
"218",0
"219",0.086177719563997
"220",5.9528271201259e-11
"221",1.06461432414218e-06
"222",1.34395686636202e-05
"223",0.124397434408156
"224",7.7715611723761e-16
"225",0.622961002759039
"226",0.191571816401198
"227",0.187327780115917
"228",0.132931345764144
"229",0.0891715171329527
"230",0.00845674442136835
"231",0
"232",5.92899196010244e-05
"233",0
"234",0
"235",1.52614023862796e-07
"236",4.51336745754816e-11
"237",0.116867387609463
"238",0.000465785399007324
"239",0.476924520878556
"240",0.839997428033083
"241",0.150561320182653
"242",0.524548051672197
"243",0
"244",1.13748228947053e-07
"245",0
"246",0.882804793318649
"247",0.796231875523394
"248",1.11022302462516e-16
"249",0.00723918680303726
"250",0
"251",6.88585499175609e-07
"252",7.41362149447866e-09
"253",0
"254",0
"255",7.50269963933903e-08
"256",1.15479847906386e-11
"257",0.352938271233346
"258",0.73173705790763
"259",0.448895232010194
"260",0.539877172054036
"261",0
"262",0.876191755048565
"263",0.866767746522455
"264",0.222947347530272
"265",0.514251254645655
"266",0.0508862945316019
"267",0.573111974567692
"268",0.806302874596584
"269",0.873561654747101
"270",0.842314859250366
"271",0.185074789775272
"272",0.966184223791047
"273",0.995408686466238
"274",0
"275",0.940603829873671
"276",0.973363493933165
"277",0
"278",0
"279",0
"280",0
"281",8.31479818330649e-09
"282",3.43458594898038e-12
"283",4.69503721678421e-07
"284",0.48306151355195
"285",0.0552980614035905
"286",0.0640789832673058
"287",0.0865399279446633
"288",1.76218279990259e-06
"289",0.537022754160416
"290",0.915790759420983
"291",0
"292",0
"293",7.86259946039536e-13
"294",0.00265624240691742
"295",0.0129736519875099
"296",1.92530651421663e-07
"297",0.118370544245289
"298",0.377134414644839
"299",0.00903079458496803
"300",0.245872004656939
"301",0.361786407677621
"302",3.3366384211142e-08
"303",0.83079183792404
"304",0.00674503423694706
"305",0.9592637424767
"306",0.855419844944715
"307",0.0416891034634399
"308",0.0992572598481652
"309",0.613038163858188
"310",0
"311",0.50431397109104
"312",0.208434297039877
"313",0.047036460819322
"314",0.48424788178203
"315",0.0672385939860439
"316",0.263868153311202
"317",0.021061910504792
"318",0.957709725997738
"319",0
"320",2.2451837056181e-09
"321",0.439853848433894
"322",0.865662846811979
"323",0.359633301507113
"324",0.748256246992538
"325",1.22124532708767e-15
"326",0.204483875394998
"327",0.828690202154792
"328",0.510132439358403
"329",0.588179723693703
"330",0.361495605093063
"331",0.251633299619291
"332",0.629087507893381
"333",0.129403723884664
"334",0.413520598884309
"335",0.00257482680907728
"336",0.951049838359086
"337",0
"338",2.43536036098613e-05
"339",1.08924568253954e-08
"340",0
"341",0.36466383114039
"342",0.678888475214268
"343",0.971897512262205
"344",3.57822993457546e-10
"345",0.0400839096356242
"346",0.0158455391768593
"347",0.343870891962913
"348",0.732232791761009
"349",0.0566007644512099
"350",0.255831131835062
"351",0.00579255941646295
"352",0.50412644972135
"353",0.0151745727740992
"354",0.432142501988503
"355",0.271304445577433
"356",0.0027108639934057
"357",0.508574866371312
"358",0.936345821264139
"359",0.918301564561394
"360",0.802438451657789
"361",0.302857380626543
"362",0.389848267265251
"363",5.87689493536381e-06
"364",0.744837662524327
"365",0.467945612779097
"366",0.589550731572623
"367",0
"368",0.373006981667564
"369",0.0703684678746024
"370",0.111523949018822
"371",0
"372",0
"373",0.28615097925686
"374",0.292689289601706
"375",0.152991861454801
"376",0.209510804586215
"377",0.393746693967568
"378",0.421922319186369
"379",0.267771134527959
"380",0
"381",1.11022302462516e-16
"382",0.842800546465608
"383",0.581482656768097
"384",0.637530559595605
"385",0.566968437454475
"386",0.0852853297560728
"387",0.149382892534577
"388",0.598983715341665
"389",0.829638749810261
"390",0.345893517588221
"391",0.672622969296701
"392",0
"393",0
"394",5.80350212331382e-11
"395",0.97973184490947
"396",0.779793712719651
"397",0.257767077087448
"398",0
"399",0.301200513690002
"400",0.75957455334179
"401",0.000666015837244571
"402",0
"403",0.125927680222702
"404",0.818340129375224
"405",0.349494179523363
"406",0
"407",0
"408",0.514809377350358
"409",0.603360913312297
"410",1.70974345792274e-14
"411",0.989053186296131
"412",0.322990346738546
"413",4.82277691806754e-05
"414",0.127411193868415
"415",0.482776897119497
"416",0.088589219368684
"417",0.298472738213547
"418",0.196642011009404
"419",0.586377106923388
"420",0.00596322609937838
"421",0.696323109443295
"422",0.731257936591156
"423",0.441546581298433
"424",0.109857925137853
"425",0.417490027056818
"426",0.432964533349767
"427",0.585134825451909
"428",0.830492876507274
"429",0
"430",0.217376102208154
"431",0.0375701646477736
"432",0.321965573680316
"433",0.0557381055091614
"434",4.56683742785513e-05
"435",0.208905444120346
"436",0.665349894269757
"437",0.902169894168391
"438",0.516021953289876
"439",0.484832428308807
"440",0.0617804663499149
"441",0.858522554849015
"442",0
"443",0.000448280235830656
"444",0
"445",0.330699354240972
"446",0.096572290284923
"447",0
"448",0.173384520620064
"449",0.335902687555033
"450",0.627982062973575
"451",3.88351437674572e-08
"452",0.819735920653504
"453",0.049970630699234
"454",0.607737692454667
"455",1.7889473857835e-07
"456",0
"457",0.593914849978028
"458",0.914883599088601
"459",0.00167580180481475
"460",1.35356139642218e-05
"461",0.392267871221591
"462",0.301478412416562
"463",0.112889796415144
"464",0.691011858481441
"465",0.257245915451429
"466",0.317310956232969
"467",0.490944830196469
"468",0.337813759008051
"469",0.750217356348494
"470",0.164266185183147
"471",0.794480431701224
"472",0
"473",0.119516911277181
"474",0.989106083241412
"475",0.892645122917304
"476",0.830748753895899
"477",0
"478",0.00194654506746239
"479",0.430878011510529
"480",0.970200397745016
"481",0.715310487841298
"482",0.360332322070612
"483",0.183727289997362
"484",0.77675275804759
"485",0.680247188008734
"486",0.751131647608518
"487",0.0273034915379302
"488",0.0118300380109023
"489",0
"490",0.0012136756623442
"491",0.332055808671431
"492",0
"493",0.0903817937792193
"494",0.187162438090543
"495",0.592725733799572
"496",0.199294573859367
"497",0.318859894393367
"498",0.617046883164454
"499",0.410496316646024
"500",0.172159761894495
"501",0.328898652153582
"502",0.541588398072278
"503",0.000212593713319942
"504",0.512476122079309
"505",0
"506",0.00148977833881025
"507",0.00114518462937263
"508",0.894917957766279
"509",0.0253981764000859
"510",0
"511",0
"512",3.38589156712032e-11
"513",5.92748072847371e-13
"514",0.126439555484822
"515",0.0554134416300052
"516",0.757520589507889
"517",0.745595060626427
"518",0.281726020383168
"519",0.00251268950237182
"520",0.770905959437055
"521",0.547518391059568
"522",0.694663538106527
"523",0.667377579479758
"524",0.00906551582494386
"525",0.0286631970130188
"526",0.138902601537008
"527",0.00845926235361905
"528",0.598741786102529
"529",0.12493937107636
"530",0.308328161711249
"531",0.207219382184482
"532",0.924883601906411
"533",3.17884607525798e-09
"534",0.78807503397566
"535",0.524146727547154
"536",0.0698054775569708
"537",0.321930673269122
"538",0.119063602687744
"539",0.66441919306753
"540",0.293411130842749
"541",0.121237763521617
"542",0.686930548178978
"543",0.897451487442964
"544",0.432958059556233
"545",0.139045113134184
"546",0.258608095444252
"547",0.0222369162648519
"548",0.113667589589881
"549",0.163703174707174
"550",0.99264091652187
"551",0.145066123540118
"552",0.563560924455207
"553",0
"554",0.43022386963497
"555",0.931985506165068
"556",0.294182290599791
"557",0.166732713920573
"558",0.932800471533354
"559",0
"560",0.339969897601114
"561",0.50912082029308
"562",0.148527860850625
"563",0.998278516347284
"564",0.775392075689659
"565",4.43092782242971e-07
"566",0.75239247021433
"567",0.0461434657949694
"568",0.383329991064114
"569",0.0627306676252255
"570",0.44072173518782
"571",0.21982931885384
"572",0.0470128508173637
"573",0.921507739229007
"574",0.196628677430123
"575",0.0828711399304624
"576",0.542948385650615
"577",0.00123034107390452
"578",0.669580332099727
"579",0.17685209098176
"580",0.0225847987971962
"581",0.200697208524169
"582",0.208725579908047
"583",0.297175928872715
"584",1.64857572038102e-10
"585",0.472959688149229
"586",0.385025806415605
"587",0.116100199081925
"588",0.0225875367011387
"589",0.223547500640753
"590",0
"591",0
"592",0.714531756170648
"593",0.533599555017481
"594",0.958400977046784
"595",0.976743337377385
"596",0
"597",0.444197641171077
"598",0.00538571119845721
"599",0.901395798108882
"600",0.316714671127197
"601",0.0349638543574283
"602",0.184018628746855
"603",0.610174539227083
"604",0.240891350035274
"605",0.491271794553793
"606",1.4432899320127e-15
"607",0.469873991624508
"608",0.370539904690996
"609",0.937918139391768
"610",0.833505669947471
"611",3.05254313933689e-05
"612",0.216496914141016
"613",0.307056085868075
"614",0.548292866962003
"615",0.00413623587898948
"616",0.643741862685681
"617",0.0368428878817272
"618",0.0836024584543094
"619",0.0759850378321639
"620",0.0693159431736703
"621",0.261346810462116
"622",0.76383474609002
"623",0.028587700986068
"624",0.69405926055954
"625",0.609307054882804
"626",0.889324638530279
"627",0.473276855581771
"628",0.478936906825605
"629",0.032368360458908
"630",0.166026807266317
"631",0.312678895705288
"632",0.216054536120847
"633",2.98094882111855e-13
"634",0.812569814024061
"635",0.58279460062229
"636",0.459569659985785
"637",0.186177446396341
"638",0.669670780331975
"639",0.325857317185703
"640",0.517225150599714
"641",2.8244073746464e-13
"642",0.0254793958407887
"643",0.0335780955066097
"644",0.228583157690966
"645",0.52294641005894
"646",0.00145375053300534
"647",0.90333559630303
"648",4.94264629224972e-11
"649",0.0266032192957218
"650",0.816543097196666
"651",0.0144040270871079
"652",0
"653",0.856480911629804
"654",0.606559716887988
"655",4.19419303069324e-05
"656",0.258539706489097
"657",0.682379763512657
"658",0.066261866763404
"659",6.22662573723787e-08
"660",6.74486910767769e-10
"661",0
"662",0
"663",3.59608109834486e-06
"664",0
"665",0.000111545788173517
"666",0.000426737588233972
"667",0.29788807162545
"668",0.397997033386371
"669",7.11054548574452e-11
"670",0
"671",0.016244570439167
"672",0
"673",0.335132579728324
"674",0.408233886891674
"675",0
"676",2.19172172633009e-08
"677",0.0422301600231921
"678",0.456195485155733
"679",7.70642422809331e-06
"680",0.190509820666162
"681",0.815861078431435
"682",0.000130436354806363
"683",0
"684",0
"685",0.537996403169351
"686",0.00041109423572494
"687",0.669917453590604
"688",0.0819293286741104
"689",0.365684201662145
"690",0.585125653237901
"691",0.227824166707513
"692",0.7669987949043
"693",0
"694",0.282450330912134
"695",0.430864843167648
"696",0.1183708953643
"697",0.49448118436787
"698",0
"699",0.715228858172374
"700",2.65578294467161e-07
"701",0.0876227883911461
"702",0.453194028047536
"703",0.936488863092912
"704",0.926658704238071
"705",0.0153125868729193
"706",0.206314637682484
"707",0.105893799615338
"708",0.114558864232695
"709",0.0652550903108475
"710",0.279874454641709
"711",0
"712",0.153576046267139
"713",0.152809118385857
"714",0.00870876873715942
"715",0.250900181854203
"716",0.306102738353981
"717",0.771856644920575
"718",0.997204243322873
"719",0.312965767643245
"720",0.491827956246379
"721",0.0855843131414763
"722",0.334898810642611
"723",0.00207135842629247
"724",0
"725",0.481119137704695
"726",2.05435286826372e-06
"727",1.11022302462516e-16
"728",0
"729",0
"730",5.227415167397e-10
"731",0.00749506347644358
"732",0
"733",1.55997437190081e-11
"734",0
"735",0
"736",2.05291019188536e-05
"737",0.000344854413267037
"738",0.168734390931883
"739",0.747233835231367
"740",0.101649703928116
"741",0.251294716074245
"742",0.89218703486699
"743",0.240522290554279
"744",0
"745",0.0782582189309743
"746",0
"747",0.00169775586645771
"748",0
"749",0.715444093722909
"750",0.0696397210258607
"751",0.0018423262711007
"752",0.930903884694359
"753",0.131173342052936
"754",0.000812381409376672
"755",0.0287177284749951
"756",0.364361138856098
"757",0
"758",0.235302247283432
"759",0.415034049203089
"760",0.598162898697683
"761",0.448868827528488
"762",0.183959004995288
"763",0
"764",0
"765",0
"766",0.0283373992907595
"767",0.512171544870383
"768",2.53731148214253e-06
"769",0.296056214729657
"770",0
"771",0.919303788245686
"772",0.0137306782875248
"773",0.811117705527451
"774",0.179327398631516
"775",0.718888540910645
"776",0.533348159400629
"777",0.748380381344248
"778",0.65928976328063
"779",0.0146976702083246
"780",0.282514825970521
"781",0
"782",1.61422875066819e-10
"783",1.61972387724418e-08
"784",0.00389822179841881
"785",0
"786",0
"787",0.127505303052034
"788",0.238941511115181
"789",0.00266588184111072
"790",0
"791",1.60390982717473e-08
"792",0.00195668900818446
"793",1.60279678418362e-09
"794",6.80510416972702e-06
"795",2.41737961559352e-06
"796",0.209721677894495
"797",8.49299741645382e-10
"798",0.0206508746102728
"799",4.16887709910885e-05
"800",1.30925689112438e-06
"801",0.00343010322531156
"802",0.000502377343687854
"803",0.00741902243339032
"804",0.0487766476252923
"805",0.0207721456856723
"806",9.31932319725437e-06
"807",0.32207583370028
"808",0.194201063014306
"809",0.00630703609548999
"810",0.966225527329588
"811",0
"812",0.0277397538392423
"813",0.93845006551773
"814",0
"815",0.263264582621207
"816",0.000238700311283258
"817",0.735287388379614
"818",0.745411718254217
"819",0.62540735174092
"820",0.489608562801403
"821",0.996319549446455
"822",0.994865577927507
"823",0.588031323068856
"824",0.00130479429870034
"825",0.407527016753606
"826",0.945083477910479
"827",0.210955361164112
"828",0.687205654710442
"829",0
"830",0.0279892290318248
"831",1.25677246387568e-12
"832",0
"833",5.9186128886779e-08
"834",0
"835",0
"836",0.0234135414693059
"837",6.66133814775094e-16
"838",0.0230674960335702
"839",0
"840",0.267674623747069
"841",0.667481344971644
"842",0
"843",0.00894981752777668
"844",0.929690443734304
"845",0
"846",6.79848690099405e-06
"847",0.0177121309348484
"848",0.0280470887007751
"849",0.278425244239245
"850",0.271111200073144
"851",1.97734935092342e-08
"852",0.0231858417181836
"853",0
"854",0.377734875002109
"855",0.0739550178241195
"856",0.509641127498606
"857",0.584771223849751
"858",0.361273929664877
"859",0.389065814383675
"860",0.817537542472013
"861",0.612338487426979
"862",0.930591430057022
"863",0.730655615729109
"864",0.497759015980491
"865",0.520803018602908
"866",8.24481615524508e-06
"867",0.127623275697694
"868",1.34230134862801e-06
"869",0.729290180290121
"870",0.319589449636878
"871",2.22044604925031e-16
"872",0.0431392493243459
"873",0
"874",7.36457561600901e-11
"875",0.947913318517428
"876",0.148391248647853
"877",0.607174037312733
"878",0
"879",0.550230665284906
"880",0.988413705947948
"881",0.577469687414125
"882",0.0469618112296887
"883",0.00115931729305041
"884",1.04768278386125e-07
"885",0.569828261581601
"886",0.0145788535593433
"887",0.19485006743606
"888",0.95536335380882
"889",7.03065908070899e-05
"890",0.621584624580503
"891",0.974745074035094
"892",9.63450430546686e-11
"893",0.0395606591635331
"894",0.913105576967341
"895",0
"896",0.00234457064168392
"897",0.950330254932417
"898",0.849262675793562
"899",0
"900",0.698716164920298
"901",0.308129940564407
"902",0.238704549035132
"903",0.00762225773785663
"904",0.00543620450809978
"905",1.80351086287445e-08
"906",1.14991218658211e-07
"907",0.356112237228988
"908",0.697355734923472
"909",0.841441522334284
"910",0.139904837467117
"911",0.11748924811405
"912",0.305888909343077
"913",0.643082572097179
"914",1.15736087380469e-10
"915",0.398167898143736
"916",0.0577208924379387
"917",0
"918",0
"919",0
"920",0.309215202409937
"921",0.869305929355036
"922",0.501500040239549
"923",0.438436471837635
"924",0.748427144616809
"925",0.269817130085277
"926",0.111800813770111
"927",2.49894295722974e-06
"928",0
"929",0.683302555381131
"930",0.682084148653134
"931",0.233510109452477
"932",0.354254514122039
"933",0
"934",0.149407340326477
"935",0.154306790453304
"936",0.543479334785297
"937",0.942295775386142
"938",0.876280157024417
"939",0.0323304815269703
"940",0.590484993379687
"941",0.191736222624081
"942",0.982801772835098
"943",0.207483483959967
"944",0.970879958433473
"945",0.71652275845354
"946",0.825941547440866
"947",0.0228215256044155
"948",0.925471381721464
"949",0.0930325910661361
"950",0.320611451937242
"951",0.727559485226888
"952",0.621079854661773
"953",0.394606567055122
"954",0.551894396503813
"955",0
"956",0.15588546556299
"957",0.764274769111056
"958",0.829703588803423
"959",0.352801210535832
"960",0
"961",0.752350267190529
"962",0.281713624532947
"963",1.60192699616424e-06
"964",0.610423173471908
"965",0.988634328102846
"966",0.664163157148785
"967",0.28916493186647
"968",2.01431586965839e-08
"969",0.974461550056124
"970",0.318942283657942
"971",0.588456127058498
"972",0.95787434189431
"973",0.802960239635171
"974",0.180633986557769
"975",0.746396021518481
"976",0.959747229694923
"977",0.109752308429771
"978",0.530914697472775
"979",0.168520865704445
"980",4.44089209850063e-16
"981",0.429436160612416
"982",0.0248501134985315
"983",0.000568764928011056
"984",0.367878584571733
"985",0.113485786108139
"986",0
"987",0.0365885840275304
"988",0.93758222535741
"989",1.39381561847784e-09
"990",0.185815797040028
"991",0.0496238876962333
"992",0.158605962600877
"993",0.15511146630377
"994",1.7319721492548e-06
"995",0.0298913701660326
"996",1.63062691238558e-07
"997",0.0122124109662676
"998",0.0692065383023758
"999",0.000108559582206458
"1000",0.267400762451591
"1001",2.88417274207919e-05
"1002",0
"1003",0
"1004",0
"1005",0.00114784048360494
"1006",1.46986611770927e-09
"1007",1.89344463441543e-07
"1008",3.34642201784696e-05
"1009",0.00654241145778189
"1010",0
"1011",0.00276265999407466
"1012",0.0563638004320235
"1013",0.00754199031274094
"1014",2.73424407081224e-05
"1015",0.601482923677068
"1016",0.165286385711681
"1017",0.866678151536215
"1018",0.128193187458767
"1019",0
"1020",0.000730033000793218
"1021",0.129786270486159
"1022",0.147016127674845
"1023",0.0334480531217983
"1024",0.128178327107722
"1025",0.875926650928564
"1026",0.993163711499147
"1027",0.912078816232341
"1028",0
"1029",0.168751840438578
"1030",5.972871641724e-09
"1031",0
"1032",0.0136322941800457
"1033",0.120195487334334
"1034",0.469745217431297
"1035",0.00314814423146115
"1036",0.874972201683252
"1037",0.0307900363868705
"1038",0.955879601191603
"1039",0.884631680164929
"1040",0.291634841969592
"1041",0.7984981526839
"1042",0.171133894173
"1043",0.0959050425578519
"1044",0.708114663716713
"1045",0.454880626090407
"1046",0
"1047",0
"1048",1.0678812278897e-09
"1049",0
"1050",9.88156188559408e-05
"1051",0.000701127367157994
"1052",0
"1053",0.00119242248123075
"1054",3.23165917359702e-08
"1055",0.713010807007889
"1056",0.511872290134218
"1057",0
"1058",0.740365287198731
"1059",0.0589216620997618
"1060",1.74164016542022e-11
"1061",0.0761781040016701
"1062",0.672461075105505
"1063",0.221335839613313
"1064",0.994626374632007
"1065",0.218012688370484
"1066",0.706822247855246
"1067",0.538935927148439
"1068",0.753754015974184
"1069",0.71271395401274
"1070",0.0622421242295583
"1071",0.84388347821536
"1072",0.986238693743857
"1073",0.849021924523325
"1074",0.0156870629052364
"1075",0.929085452618721
"1076",0.82560989941824
"1077",5.57580404625391e-07
"1078",0.189410750637019
"1079",0.249456502619488
"1080",0.830914475854778
"1081",0.0140627653596732
"1082",0.159813119061663
"1083",0.0662801769687288
"1084",0.469185679240296
"1085",0
"1086",0.640400117824512
"1087",0.698521389762291
"1088",0.140002909303161
"1089",0.317948402773205
"1090",0.36883232524785
"1091",0.542596646954213
"1092",0.379718477290591
"1093",0.171486325592129
"1094",0.322475786733371
"1095",0
"1096",0.317230340105088
"1097",0.212571791112369
"1098",0
"1099",0.662006541721589
"1100",0.0154801383116162
"1101",0.579463355129833
"1102",0.371300608539251
"1103",0.662159634433465
"1104",0.555380135350552
"1105",0
"1106",0.584430591386711
"1107",0.165192265268027
"1108",0
"1109",0.0455500563834244
"1110",0.141045844950783
"1111",0.803481047433417
"1112",9.70818800394291e-06
"1113",0.381482180940608
"1114",0.0121706896518697
"1115",5.57448689875173e-07
"1116",0.341614000356427
"1117",0.0332119247924932
"1118",0.988763856650503
"1119",0.397685559014917
"1120",0.0989348346598273
"1121",0.295262575097156
"1122",0.704092555349922
"1123",0.7538864660386
"1124",0
"1125",0
"1126",0.170757023321903
"1127",0.164372240622378
"1128",0.00514541599890905
"1129",0.431579602441794
"1130",0.591480895736695
"1131",0.306188765887203
"1132",0.180576443442813
"1133",5.39754219097688e-09
"1134",0.31136146006942
"1135",1.14892539038181e-07
"1136",0.501154802390961
"1137",0.10541346040608
"1138",0.646697196081445
"1139",0.100746766576004
"1140",0
"1141",0.0438404935296012
"1142",5.9112127281935e-06
"1143",4.4658910236306e-05
"1144",0
"1145",0.859822561944628
"1146",0.42475541130955
"1147",0.188557735132386
"1148",0.618413937944381
"1149",0.768276191552753
"1150",0.481997149533297
"1151",0.18555043786783
"1152",0.0722865212618091
"1153",0.632172673036292
"1154",0.552877128538989
"1155",1.6702839444882e-08
"1156",0.0943124102288764
"1157",0.255210441294319
"1158",0.871028817572591
"1159",0.762702349353932
"1160",0.592778834303405
"1161",9.03847810826974e-05
"1162",0.641707274261553
"1163",0.0515042494962685
"1164",0.480125826642868
"1165",0.128787674880828
"1166",0.112797544667662
"1167",3.17963295692891e-08
"1168",0.0542289850487525
"1169",0.823042088023002
"1170",0.29244157637599
"1171",0.486097482036294
"1172",0.162974074755072
"1173",0.636404735986685
"1174",0.906951659219983
"1175",0.585003192131562
"1176",0.033557607395573
"1177",0.20790826911884
"1178",0.0139367320614483
"1179",0.346948693708295
"1180",0.914632390436584
"1181",0.72840809482687
"1182",0.0668230764464046
"1183",0.825667006561605
"1184",0.274960811264481
"1185",0
"1186",0.00097937221279254
"1187",0
"1188",1.80578885178306e-11
"1189",0.0258270703551806
"1190",1.66072855467547e-09
"1191",0
"1192",0.632594273551846
"1193",0
"1194",0.680120203316486
"1195",0
"1196",0.0485064550550823
"1197",0.89676496118797
"1198",0.101969944058
"1199",0.365784501819914
"1200",0.469673579768926
"1201",1.52988732793347e-13
"1202",0.532383782286943
"1203",0.893249496359813
"1204",0.391412436783437
"1205",0.808607307372099
"1206",0.989789801720289
"1207",0.21150557281935
"1208",0.360166091761505
"1209",0.080784756973961
"1210",0.164583103894569
"1211",0.59158350026065
"1212",0.270416282128678
"1213",0.113823547637467
"1214",0.237192236559747
"1215",0
"1216",0.0253999550888869
"1217",0.729842343948997
"1218",0
"1219",0
"1220",0.263859429029081
"1221",0.66865457790525
"1222",0.993994936598363
"1223",0
"1224",0.0529766631758554
"1225",0.766291206684313
"1226",0.087423760146112
"1227",1.67506330810419e-05
"1228",0.366111075132095
"1229",0.973886056561
"1230",0.575599410306684
"1231",0
"1232",0
"1233",3.01717104411736e-06
"1234",0.436677534159532
"1235",0.000381483343132261
"1236",0
"1237",0
"1238",0
"1239",0
"1240",0
"1241",0.0527951572832311
"1242",0
"1243",0
"1244",0.0305072995376504
"1245",0.377014713417916
"1246",0.00473991411832375
"1247",0.844978470631587
"1248",0.663033814769349
"1249",6.82669366479649e-05
"1250",4.07071043539986e-11
"1251",0
"1252",0.627018934388176
"1253",0.920814883323933
"1254",0
"1255",0
"1256",0.632829885711968
"1257",0.0236835686692937
"1258",0
"1259",0
"1260",0.940204082669669
"1261",0.324044636897999
"1262",4.61887195157829e-10
"1263",0
"1264",0.337038356135507
"1265",0
"1266",9.38117361570789e-11
"1267",0.492914146601763
"1268",0.00436527884411808
"1269",0
"1270",0.761522389226302
"1271",0.325623951369797
"1272",0.742421213819484
"1273",3.71681141864144e-07
"1274",0
"1275",0
"1276",0
"1277",0.786523434027054
"1278",0.344122499130797
"1279",0.0503115146824041
"1280",0.116954884768335
"1281",0.00025866895949811
"1282",0.0905167832880959
"1283",0.505663616217426
"1284",0.845124181161656
"1285",0
"1286",0.165146672386512
"1287",0
"1288",0
"1289",0.269005187691977
"1290",0.676083844847454
"1291",0.0165749991321851
"1292",0.15794645987817
"1293",0.0225725825193165
"1294",0.0371693041603034
"1295",0.690840655483999
"1296",0.261734111139072
"1297",0.414960756502613
"1298",0.147210082864189
"1299",0.143028194888833
"1300",0.572997325006052
"1301",0.203657159926955
"1302",0.70204099893664
"1303",1.2756462552943e-12
"1304",1.72813541254868e-09
"1305",0.000112142762201173
"1306",1.5753444556621e-06
"1307",0
"1308",8.26072174542336e-06
"1309",0.712910374940995
"1310",0.698223558319516
"1311",0
"1312",0
"1313",0
"1314",0
"1315",0
"1316",0
"1317",0.00225848498868531
"1318",1.62833857508815e-10
"1319",0.371923311480712
"1320",0
"1321",0.646779464623982
"1322",0
"1323",3.33066907387547e-16
"1324",0
"1325",0
"1326",0.145925181293181
"1327",0.0198862413475647
"1328",0.61838220914768
"1329",0.000164886869159164
"1330",0.383097471032438
"1331",0.0883724135949675
"1332",0.00855042435227604
"1333",0.00174113165633005
"1334",0
"1335",0.164372740322358
"1336",0.171971476581704
"1337",0.688352910499251
"1338",0
"1339",0.305108041402
"1340",0.497409953711674
"1341",0.934589421540936
"1342",0.87544556196233
"1343",0.336241604645773
"1344",0.722176051213236
"1345",0
"1346",0.340681283515956
"1347",0.191012155702983
"1348",5.26238242981591e-08
"1349",0
"1350",1.26595809502028e-07
"1351",4.67280658611458e-11
"1352",0
"1353",1.61868011590016e-05
"1354",0.319676121680968
"1355",3.84989510209266e-05
"1356",0.0796241068605242
"1357",0.862382449476218
"1358",0
"1359",0
"1360",0.125527147288213
"1361",0.346667576245141
"1362",0.0788539722726781
"1363",0.259003823802445
"1364",0.128766186897896
"1365",0.907657995390102
"1366",0.0178458781641937
"1367",0
"1368",9.05891972213801e-07
"1369",0
"1370",0.00172371181236552
"1371",0
"1372",0.888445827980383
"1373",0.423453437022988
"1374",5.99287064417808e-10
"1375",4.07228228915812e-09
"1376",0.197941458100553
"1377",0.153123512537841
"1378",0.784395154971071
"1379",0.116053880920248
"1380",0.869640191161104
"1381",0.526962069963445
"1382",0.830272910197566
"1383",4.66293670342566e-15
"1384",0
"1385",0.00843009132382355
"1386",0
"1387",0
"1388",0
"1389",8.75674058820053e-08
"1390",0.000168749619408604
"1391",1.16573417585641e-14
"1392",0.00972075232667036
"1393",0.71887251243456
"1394",0.684841105615865
"1395",0
"1396",1.96509475358653e-14
"1397",7.22799018526565e-07
"1398",0.464799318346684
"1399",0.111723134760742
"1400",0.0574986968146746
"1401",2.22044604925031e-16
"1402",8.26831945244244e-07
"1403",0
"1404",0
"1405",0.126920980683957
"1406",0.448978147958711
"1407",0.185611723342344
"1408",0.790007975523172
"1409",0.966996484589078
"1410",0.663458256773297
"1411",0.00209056386497108
"1412",0.0573425591159076
"1413",0.0384314702387625
"1414",0.076301754790329
"1415",0.325862750308751
"1416",0
"1417",0.37609556040792
"1418",7.99219961963304e-05
"1419",0.683753873049722
"1420",0.00328772465388394
"1421",0
"1422",6.46191534946494e-05
"1423",0.249428194467237
"1424",0.021891423916154
"1425",0.486459470864854
"1426",0.911275220239946
"1427",0
"1428",0.779678102147887
"1429",0
"1430",0
"1431",6.54187792825667e-08
"1432",1.43199261337656e-08
"1433",1.13575815419154e-13
"1434",0.00199109600678371
"1435",0.484521744145567
"1436",0.283967874340201
"1437",0.656010376472638
"1438",0.49769194967833
"1439",0.519703066358052
"1440",0.468298916112754
"1441",0.18385957238467
"1442",0
"1443",0
"1444",5.00710584105946e-14
"1445",0
"1446",0.0553811587615698
"1447",0.765188281968527
"1448",0.120064878960109
"1449",0.18743666444762
"1450",0
"1451",0
"1452",0.398708183180089
"1453",0.0258422725438493
"1454",0.0424623276257887
"1455",0.556005692072724
"1456",0.521407744326143
"1457",0
"1458",4.73880218510025e-07
"1459",0.720066068870207
"1460",4.70825994325352e-06
"1461",0
"1462",0.56371697926526
"1463",0
"1464",0.338721810152638
"1465",0.3694289715743
"1466",0.0142542644387045
"1467",0.00171444581943092
"1468",0
"1469",0
"1470",4.23798866022729e-06
"1471",0.00170311112324639
"1472",0.00747193242357069
"1473",0.00140472339863174
"1474",0.522967734121069
"1475",2.34306463120504e-10
"1476",0.0442587652936427
"1477",0.000616531771856832
"1478",0.232914650480908
"1479",0.516533687707281
"1480",0.0683974946419287
"1481",0.158239463964774
"1482",0
"1483",0
"1484",0.437001734790327
"1485",2.25593987934758e-11
"1486",0.552880726322228
"1487",4.79038851767255e-05
"1488",1.21501639060995e-06
"1489",3.53683949905204e-08
"1490",0.10471092340504
"1491",0
"1492",9.9526259415339e-05
"1493",0
"1494",0
"1495",0
"1496",1.1002919020342e-08
"1497",0
"1498",0
"1499",0
"1500",0
"1501",2.22044604925031e-16
"1502",0
"1503",0
"1504",3.06152880824584e-11
"1505",0.00161018955605707
"1506",0
"1507",7.95830165101208e-07
"1508",8.63342031198755e-09
"1509",0.0105144591218334
"1510",0.0481792542355401
"1511",0.00337975798238843
"1512",0.000606055208430711
"1513",5.98970872900395e-11
"1514",2.22044604925031e-16
"1515",0
"1516",0
"1517",0
"1518",0
"1519",8.54927240112602e-12
"1520",8.18558612615261e-05
"1521",0.152756486278932
"1522",0.0758557681728133
"1523",0.599046163839546
"1524",0.128246729995735
"1525",0.92001349475554
"1526",0.450192526514607
"1527",0
"1528",0
"1529",0
"1530",0.0024455747674601
"1531",0.00337572534723685
"1532",0.712996225697789
"1533",1.11022302462516e-16
"1534",0.00765676621842981
"1535",0.169225742663542
"1536",0.203047264667253
"1537",0.547009748581262
"1538",0.661879650385512
"1539",0.427583877459606
"1540",0.00267006149907478
"1541",7.03881397612349e-14
"1542",0.157474499692238
"1543",0.145408858383323
"1544",0.44951413209635
"1545",0.117011780775143
"1546",0.132078868256689
"1547",0.326606261126291
"1548",0.358522780610995
"1549",0.202365539630519
"1550",0.365423145686979
"1551",0.276303810456375
"1552",0.870014326688888
"1553",1.15996987142264e-05
"1554",1.31006316905768e-13
"1555",0.179940936227724
"1556",0.00146296061183449
"1557",0.799353936109937
"1558",0.00171743528827217
"1559",0.120402192019302
"1560",0.588567724582502
"1561",0.457070119585613
"1562",0.00234044246480714
"1563",0
"1564",0.0347458230632745
"1565",0.0632694152082099
"1566",0.643596928443818
"1567",0.596270013693726
"1568",0.333294459803541
"1569",0.708771231871872
"1570",0.228488052095745
"1571",0.762390242665645
"1572",0.0240916376157446
"1573",0
"1574",0.563263031741546
"1575",0.981117577935548
"1576",0.656348565904318
"1577",0.886391555526003
"1578",0.0807858500493241
"1579",0.449461813946211
"1580",0.463977204761262
"1581",0.00298513574128745
"1582",0.592092446898195
"1583",0.317225291368982
"1584",0.0746495976238842
"1585",0.24925561534621
"1586",0.957134319722493
"1587",0.729531517779829
"1588",0.313484135442646
"1589",0.446176948702246
"1590",0.920920439845936
"1591",0.564506749254412
"1592",0.0174039069632718
"1593",0.629119970885779
"1594",0.854532997933183
"1595",0.510991657730731
"1596",0.0572044144929048
"1597",0.862759247042957
"1598",0.0146547054005736
"1599",0.355318055044344
"1600",0.229685966595066
"1601",0.0191932793211853
"1602",0.000200516986718524
"1603",0.000145136251260447
"1604",2.20242712956065e-11
"1605",0.0957023826084067
"1606",0.0161678418810854
"1607",0
"1608",0.00441566016226858
"1609",0.0794165655953488
"1610",5.96858782756504e-05
"1611",0.00616094901238673
"1612",2.27942852371044e-08
"1613",0
"1614",1.6038281813735e-12
"1615",0.831347595786018
"1616",0.0365811215481981
"1617",0.135688637159396
"1618",0
"1619",0.268663600952841
"1620",0.0494881078134285
"1621",0.689804085324624
"1622",6.81052652909964e-05
"1623",0.732503537171887
"1624",0.186410020694079
"1625",0.194606060161577
"1626",0.098000143748363
"1627",0.00613973591976236
"1628",2.04642903983698e-05
"1629",0.523060464511013
"1630",0.297655334415588
"1631",0
"1632",0.250681825569807
"1633",0.0307790463842127
"1634",0
"1635",0.000168118926879846
"1636",0.0452028032989975
"1637",0.673059524523034
"1638",0.216400076638788
"1639",3.33066907387547e-16
"1640",0
"1641",0.490512460841471
"1642",0.0965400647823095
"1643",0.448783753384436
"1644",0.106355741754468
"1645",0.301671980524146
"1646",0.78793586699781
"1647",3.4624745767986e-05
"1648",0.38958538292783
"1649",0.920748099800341
"1650",1.0100642544586e-10
"1651",0
"1652",1.55528923073689e-11
"1653",0.42580976164065
"1654",0.121043343919287
"1655",0.173513540624239
"1656",0.649382957709744
"1657",0.907974853880312
"1658",0
"1659",0.457088888939905
"1660",0.746408210145172
"1661",0.212037419079721
"1662",0.876461867646271
"1663",1.61058235637057e-08
"1664",0
"1665",0
"1666",9.56257057982413e-08
"1667",0.0455585632019612
"1668",1.09759878963445e-09
"1669",0.488416107039272
"1670",0.357443824545127
"1671",0.0992560202987051
"1672",0.426519645527664
"1673",0.0937789169621335
"1674",0.9221792476332
"1675",0.898757850462968
"1676",0.979473937777615
"1677",0
"1678",0
"1679",0.23751375496213
"1680",4.7387759272155e-09
"1681",0.0155141557297168
"1682",0
"1683",0
"1684",0
"1685",2.71338507218388e-13
"1686",0
"1687",1.88737914186277e-14
"1688",0.0224970913849565
"1689",0.629153739480183
"1690",0.212096545524754
"1691",0.0996841350451465
"1692",0
"1693",0
"1694",0.0104499704343615
"1695",0
"1696",0
"1697",0.405020096369289
"1698",0
"1699",0
"1700",0.0012799411995984
"1701",0.427828433547494
"1702",0
"1703",3.00781621831447e-12
"1704",0.000530270866862192
"1705",2.56474037563237e-08
"1706",0.204345971746661
"1707",0
"1708",2.09854356114647e-12
"1709",0.0636097039437779
"1710",5.44408581437672e-07
"1711",0
"1712",2.13580375607592e-10
"1713",0.0251924102221519
"1714",0
"1715",0.229267988618136
"1716",9.87642190253268e-11
"1717",0.0480746164128164
"1718",0.269225139234037
"1719",0.0412736809441494
"1720",0.0236632680675291
"1721",0.0375311971661513
"1722",0.00295572092029861
"1723",0.00170433160074912
"1724",0.151026267566527
"1725",0.363022409832297
"1726",0.210586420269181
"1727",0.444077186539656
"1728",0.0360487006295493
"1729",0.0127579276647691
"1730",0.591435041250118
"1731",0.00829509378167892
"1732",0.980559604824092
"1733",0.00117367125918666
"1734",0.0896356867663355
"1735",0.00717156050501444
"1736",0.103316364147671
"1737",0.0481815439744637
"1738",0.000125317173182982
"1739",0.955281861254153
"1740",0.0300357153212086
"1741",0.00737847784784407
"1742",0.423989463652296
"1743",0.00331364074233098
"1744",0.0890765829823145
"1745",0.482161680282024
"1746",0.000293653372336222
"1747",0.620825513427613
"1748",0
"1749",0.00033864615338941
"1750",0
"1751",0.319674493895782
"1752",0.0953834275815464
"1753",0.768193904903417
"1754",0.575403942084462
"1755",0.733330205741412
"1756",0.678489404127283
"1757",0.21726839596155
"1758",0.350929067555982
"1759",0.851904082759421
"1760",0.435733361877791
"1761",1.2712053631958e-13
"1762",0.616857079820854
"1763",0.7687235477019
"1764",0.208306931776367
"1765",5.6564476436094e-09
"1766",9.32738890457863e-07
"1767",0.0704295023809285
"1768",0.754147486009063
"1769",0
"1770",0
"1771",0.1202910494825
"1772",0.61783120425694
"1773",0
"1774",0.888187243559469
"1775",0.736413289397989
"1776",0.909047764743584
"1777",0.728833349875273
"1778",0.287821295401325
"1779",0.0350826729750697
"1780",0.631682733868572
"1781",0.944697443424197
"1782",0.977489355311422
"1783",0.657488462106335
"1784",0.314613344149995
"1785",0.394354133677241
"1786",0.56423803509811
"1787",0.119259354399709
"1788",0.820160698771396
"1789",0.286171255896422
"1790",0.183542013578028
"1791",0.045625019542281
"1792",0.0522096690341513
"1793",0.677517870098482
"1794",0.0949101427826562
"1795",0.981088760128113
"1796",0.0226152971368032
"1797",0.115175608903372
"1798",0.561635198916068
"1799",0.337397218865675
"1800",0
"1801",0.970939837320055
"1802",0
"1803",0.016897841857605
"1804",2.07031607252217e-05
"1805",0.0320861142455307
"1806",0.116045225325635
"1807",0
"1808",0.852042021506132
"1809",2.17140421354678e-06
"1810",0
"1811",0.323290460861416
"1812",0.357261038430886
"1813",0.00237503477975809
"1814",0.32716630892258
"1815",0.0445881092014019
"1816",0.86488023599086
"1817",0
"1818",0.441148297107431
"1819",0.275249997798455
"1820",0.295432925001199
"1821",0.650232032587301
"1822",0.0503521633851297
"1823",0.0580212108152816
"1824",0.437227041801971
"1825",0.575653349444885
"1826",0.882426235144318
"1827",0.197940347446121
"1828",0
"1829",0.478292093162647
"1830",0.379023773357554
"1831",0.271285898425742
"1832",0.0306053967521209
"1833",0.0277406234782456
"1834",0.188424683309563
"1835",3.78559556968305e-05
"1836",0
"1837",0.442079226347217
"1838",0.72636160153327
"1839",0.303075209898735
"1840",0.0741346851262455
"1841",0.636984750110168
"1842",0.918696959479646
"1843",0
"1844",0
"1845",0.547709339200624
"1846",4.40769643006433e-12
"1847",0.518973907404682
"1848",0.036834879307115
"1849",0.28872512730278
"1850",0.449962174179402
"1851",0.794122828224354
"1852",0.589969855651662
"1853",0.521844085471112
"1854",0.120124620560991
"1855",0.019287640684595
"1856",0.0802475175403444
"1857",0.695933868261251
"1858",0.0499511747951026
"1859",0.526956913237783
"1860",0.450020601131811
"1861",0.208581616262202
"1862",0
"1863",0.0033537192180717
"1864",0.0588540813082731
"1865",0.910069585777188
"1866",0.674596163561889
"1867",0.115549246550218
"1868",0.0256465577917773
"1869",0.00728272374371153
"1870",0.110004486152212
"1871",0.121329603283846
"1872",0.437823335387308
"1873",1.453086539982e-10
"1874",0.611491353549982
"1875",0.536568015901571
"1876",3.10862446895044e-15
"1877",0.000499982303210245
"1878",0.000190435126354638
"1879",0.000197226721089683
"1880",0
"1881",0.121440436509496
"1882",0.0619613882889086
"1883",0.497816561902964
"1884",0.000183083353126334
"1885",0.00272767441008337
"1886",1.56191005240558e-07
"1887",0.160625084413247
"1888",0
"1889",0
"1890",0.061746781402316
"1891",8.06392803676115e-06
"1892",0.00704778496728109
"1893",0
"1894",0.0457486896980739
"1895",0.142338233404644
"1896",0
"1897",0
"1898",7.63167307127333e-13
"1899",0
"1900",6.4907967657013e-05
"1901",0.937663244313878
"1902",7.81436084729137e-08
"1903",0.537166500748055
"1904",0.856476859368768
"1905",0
"1906",0
"1907",0.42740476993153
"1908",0.000300334307704264
"1909",0.198794658081795
"1910",0.562308348696012
"1911",0.0162411701393126
"1912",0.564758905545574
"1913",0.152560977237323
"1914",0.0947177106801024
"1915",1.65180180977664e-07
"1916",0.115690149743814
"1917",0.686001399311677
"1918",0.0599765053490026
"1919",0.699540400944396
"1920",0.291630708921042
"1921",0.728570903754485
"1922",0.0390920178183886
"1923",0.430167655291764
"1924",0.382977251437974
"1925",0.130417792440363
"1926",0.162400784836796
"1927",0.769723399883128
"1928",0.0943935553926699
"1929",0.876663678049061
"1930",0.566685286017447
"1931",0.991823946328035
"1932",0.00767748811594715
"1933",0.575240810289007
"1934",0.0358231479887088
"1935",0.0323923837478209
"1936",0.13257808039838
"1937",1.53987933515509e-13
"1938",0.479680612964393
"1939",0
"1940",0
"1941",0
"1942",2.43643900744717e-05
"1943",6.32626450791651e-06
"1944",0
"1945",7.06020797380802e-11
"1946",1.56737363643522e-07
"1947",0.418077514099392
"1948",0.399287509490512
"1949",0.0280127563990159
"1950",0.154676780667189
"1951",0.100016639455772
"1952",0.490363428600747
"1953",0.628687199470494
"1954",0
"1955",0
"1956",6.5502353763236e-08
"1957",0.0162723074251758
"1958",0
"1959",0.882266650391452
"1960",0.844818447639941
"1961",0.664738821278815
"1962",0.123459824654455
"1963",0.794307280095856
"1964",0.11393650137586
"1965",0.0146849054509343
"1966",0.769523290276306
"1967",0.781259194366115
"1968",0.0337821967186553
"1969",0.00101662172667205
"1970",0.189037234015467
"1971",0.089570382140982
"1972",0
"1973",0.528797837024375
"1974",0.362374801744814
"1975",0
"1976",0.00216312239500216
"1977",2.02660110915076e-12
"1978",1.21884528025973e-08
"1979",6.88338275267597e-14
"1980",0.208904703776758
"1981",0.0740808717539182
"1982",4.49127347534883e-08
"1983",0.777767109073454
"1984",0.00166293193502465
"1985",0.0212239826037837
"1986",0.0103380819789027
"1987",0.00164215741908369
"1988",0.6414581230983
"1989",0.893677649453243
"1990",0.13547651338785
"1991",0.782459262614713
"1992",0.356908486175148
"1993",0.0300076182218166
"1994",0.413151201357353
"1995",0.0952400099895008
"1996",0.135561548685436
"1997",0.054274472747915
"1998",0.320578305522016
"1999",4.44089209850063e-16
"2000",0.214174181719122
"2001",0.849024133276512
"2002",0.384533880311301
"2003",0
"2004",0.252032178551635
"2005",0.941837344789717
"2006",0.0286172531446227
"2007",0.472249921747738
"2008",0.730716259072512
"2009",0.845892704519551
"2010",6.28483390288093e-05
"2011",0.000882959424879037
"2012",0
"2013",0.568935585772458
"2014",0.53895962133568
"2015",0.235819771379913
"2016",0.703193123926183
"2017",0.726397804353608
"2018",0.227697153775452
"2019",0.71419142455418
"2020",0.173752495648608
"2021",0.521920737571528
"2022",0.53347710150764
"2023",0
"2024",0.290830814158229
"2025",0
"2026",6.20405872919783e-06
"2027",1.94787176011069e-06
"2028",0.0103554251213176
"2029",0.00744107834023755
"2030",0.961257207062536
"2031",0.0279493703185588
"2032",0.112597960406379
"2033",0
"2034",0
"2035",0.0957733427556131
"2036",8.83944412054527e-05
"2037",0.52472446790327
"2038",0.0044486579765175
"2039",0
"2040",0.234038351387726
"2041",0.241726745809814
"2042",0.687105780640332
"2043",0.911014795233308
"2044",0.871898313124022
"2045",0
"2046",0.318831698877421
"2047",0
"2048",2.87658785680378e-13
"2049",0.373511680630618
"2050",0.0784289359357515
"2051",0.474433408675021
"2052",0.850510458502308
"2053",0.645859859821757
"2054",0.0171910362244913
"2055",0.397987246864256
"2056",0
"2057",0
"2058",0
"2059",0.448859666941127
"2060",0.536585493551032
"2061",0.000739202196938238
"2062",0.347898928991326
"2063",0.622141667344745
"2064",0.681586425587229
"2065",0.000396236557092533
"2066",0.174948169921559
"2067",0.093803837914294
"2068",0
"2069",8.03533695137304e-09
"2070",6.30222204492936e-05
"2071",0
"2072",1.57379432796922e-06
"2073",0.276700635632099
"2074",0.000509009831737184
"2075",0.373912721779184
"2076",0.716982712807708
"2077",0.10789978017793
"2078",0.197924298605256
"2079",0.0146259701792976
"2080",0.641000151673546
"2081",0.0557841846882636
"2082",0.220428369346776
"2083",0.000590611301100941
"2084",0.00275373481849595
"2085",0.000781236692872112
"2086",0.000993690241012701
"2087",0.00030891605875305
"2088",0.0025612127756357
"2089",0.35384980649565
"2090",0.000150430501630994
"2091",0
"2092",0.000396763332131678
"2093",8.36334712595033e-09
"2094",9.46564011616857e-08
"2095",0
"2096",1.37241440434366e-10
"2097",0
"2098",1.70752580519462e-07
"2099",0.000126225272611524
"2100",0.00576063025205564
"2101",0.000239286868026323
"2102",3.37932637761718e-06
"2103",1.24774857113152e-10
"2104",2.92121882239371e-12
"2105",0.92239125268361
"2106",0
"2107",0
"2108",6.66823787545123e-05
"2109",0.242782047279906
"2110",0.000298958271537586
"2111",0.0455021697359281
"2112",9.05146724639039e-06
"2113",0.000859788955925977
"2114",0.308862648766896
"2115",0
"2116",7.57926166272682e-10
"2117",7.61316178543581e-05
"2118",0.367282542885648
"2119",0.986801510615354
"2120",0.553205878266701
"2121",0.0583618833720323
"2122",0.685739490061869
"2123",0.0013052642426884
"2124",0.0737413290791761
"2125",0.142368766304731
"2126",0
"2127",0
"2128",0.1227715025181
"2129",0
"2130",0.667934676218518
"2131",0.664868365796599
"2132",0.932537368364931
"2133",0.488414441865252
"2134",0.954845593920588
"2135",0
"2136",0.640782148329202
"2137",6.20437039522415e-08
"2138",1.06587627612953e-10
"2139",0.000863469370814718
"2140",0.858719675776656
"2141",0
"2142",0
"2143",0
"2144",0.00600854374516746
"2145",0.194840212168652
"2146",0
"2147",0.265691194955769
"2148",0
"2149",0.0500350936723559
"2150",0.00111970171996179
"2151",5.34511092054046e-08
"2152",0.00182440407748874
"2153",0.0632875596139735
"2154",0.0554978622816137
"2155",0.0249523405095009
"2156",0.000166696540538247
"2157",0.0264685387992691
"2158",0.0119337593591675
"2159",0.568523737170425
"2160",0.600497506506013
"2161",0.000924526953252958
"2162",0.0237679849659267
"2163",0.507032187387151
"2164",0.443073677887398
"2165",0.554709605372054
"2166",0.0535093555178258
"2167",0.00544036023206196
"2168",0.187352771674924
"2169",0.27009176072745
"2170",0.000208441616794453
"2171",0
"2172",0.293180150127317
"2173",0.0682579936169213
"2174",0.00335672378945151
"2175",0.0306992374286909
"2176",0.0804158781324555
"2177",0.77746533409247
"2178",0.525412800434336
"2179",0.0204129933014772
"2180",0.114181964006252
"2181",0.338437439474271
"2182",9.35918009759007e-14
"2183",0
"2184",0
"2185",0.186850674804021
"2186",1.36640443404445e-09
"2187",0.000221908392072034
"2188",0
"2189",5.69433389330243e-13
"2190",0.772896115174875
"2191",0.443561108114319
"2192",0.557392792888144
"2193",2.77596895222887e-05
"2194",0.121449701615079
"2195",0.74885248839862
"2196",0.979737191217716
"2197",0.288274503464898
"2198",0.0229391617000047
"2199",0.238204060029451
"2200",0.517767619741882
"2201",0.0526234345104264
"2202",0
"2203",0
"2204",0.291595807994634
"2205",0.206484544332568
"2206",0.00208230621235939
"2207",0.484930511475999
"2208",6.46748485877424e-08
"2209",0.13347575495316
"2210",1.33739352925488e-09
"2211",0.367062257273762
"2212",0.182261535997672
"2213",0.165716125751116
"2214",0
"2215",0
"2216",0.846211956014099
"2217",0.889412356714948
"2218",0.00746831960256999
"2219",0.600254731062594
"2220",0
"2221",2.02079353250895e-10
"2222",0.309734534781044
"2223",0.098818362763878
"2224",0.513612913862627
"2225",0.205154712034671
"2226",0.0435086034695117
"2227",0.168129810057116
"2228",0.0279041714556354
"2229",0.698667541802369
"2230",0.980737062735757
"2231",3.17520830264151e-05
"2232",0.105550347726967
"2233",0.108230328020783
"2234",0.527653133921064
"2235",0.613084623101676
"2236",0.277773980949051
"2237",0.0205224381043798
"2238",0.0319526872186751
"2239",0.668922896234254
"2240",0.39179012699991
"2241",0.14662094399778
"2242",0.01409747194572
"2243",0.251431553299795
"2244",0.213467618132241
"2245",0.26062714622565
"2246",0.473714051541579
"2247",0.740961294070901
"2248",0.165982970496998
"2249",0.699338978458738
"2250",0.495242854547619
"2251",0.888525153762102
"2252",0.565829036057145
"2253",0.118148262838204
"2254",0
"2255",0.519515116574947
"2256",0.34802434586088
"2257",0.632915079471039
"2258",0
"2259",0.470582353442637
"2260",0.64795508444463
"2261",0.212409797299426
"2262",0.358206467675823
"2263",0.154016652394958
"2264",0.872854342133108
"2265",0.38982549407082
"2266",0.433054843061802
"2267",0.0110704891950619
"2268",0.414598987161411
"2269",0.816958980749987
"2270",0.00132262991371901
"2271",0.777492550160589
"2272",0.059565538330943
"2273",0.480470793036498
"2274",0.20869972897057
"2275",0.97002044267951
"2276",0.58185636458914
"2277",5.37703975210801e-05
"2278",0.0579522642315884
"2279",0.212232786418062
"2280",0
"2281",7.32747196252603e-15
"2282",0.549848124805471
"2283",0.289977308225854
"2284",0.757959213115362
"2285",0.00231213005246933
"2286",0
"2287",0.395746475699286
"2288",0.00025614463525625
"2289",0
"2290",0.493754767548247
"2291",0.576763720000568
"2292",0.979497701643505
"2293",0.0104295389586591
"2294",0
"2295",0
"2296",0.596337867768054
"2297",0.654345577366817
"2298",0.00937866590242797
"2299",0
"2300",0.00373478987530962
"2301",0
"2302",0
"2303",0
"2304",0
"2305",1.05000735638461e-05
"2306",0.0610232225208137
"2307",0.539673649747702
"2308",0.49412463267701
"2309",0.879177202288514
"2310",3.27182725357034e-13
"2311",8.88178419700125e-16
"2312",0
"2313",0.107064667487534
"2314",0
"2315",2.02232675050595e-09
"2316",0.365644621657055
"2317",0.0586341618553105
"2318",0
"2319",0
"2320",0.000998496313709185
"2321",0.0974553590502484
"2322",0.335181315237622
"2323",0.792118039291833
"2324",0.466512036671678
"2325",0.594783758085955
"2326",0
"2327",0
"2328",4.44089209850063e-16
"2329",0.00118822684395037
"2330",3.77553543984277e-12
"2331",3.3116785345122e-05
"2332",0.542252831496644
"2333",0.60830517282295
"2334",0
"2335",1.14498742709301e-08
"2336",0.0902973759293335
"2337",0.406342640231556
"2338",0.0728210172492056
"2339",0
"2340",0
"2341",0
"2342",0
"2343",1.72063001141476e-05
"2344",0.377736294105601
"2345",0.563641636462746
"2346",0.813357115694496
"2347",0.352364550126291
"2348",0.409527416232395
"2349",0.887792501947439
"2350",0.403805444517896
"2351",0.00734115174951699
"2352",0
"2353",0
"2354",1.11022302462516e-16
"2355",0
"2356",0.965484775345206
"2357",0.0643131597626356
"2358",0.00106554411636273
"2359",0
"2360",0.00885789993743036
"2361",0.00522026776756224
"2362",0.0528155570304109
"2363",0.112464179581922
"2364",0.0421618413878099
"2365",2.21354690632669e-06
"2366",8.25672863413729e-13
"2367",0.179722500029284
"2368",0.0197847057311049
"2369",0.879727979434117
"2370",0.521207600405401
"2371",0.929380047023134
"2372",0.213999809991933
"2373",0
"2374",0
"2375",3.1573188508105e-11
"2376",5.47552953544805e-06
"2377",0
"2378",0
"2379",0
"2380",0
"2381",0
"2382",0.242060306681275
"2383",0.485857521568792
"2384",0
"2385",0
"2386",0
"2387",0
"2388",0
"2389",0
"2390",1.22152288284383e-11
"2391",9.75315384010855e-11
"2392",0
"2393",2.94892978512928e-05
"2394",0
"2395",0.0338688987707862
"2396",0.177098144389347
"2397",0
"2398",0
"2399",0
"2400",0
"2401",0
"2402",0.00741488429807891
"2403",0.635012465262117
"2404",0.00696900121481558
"2405",0
"2406",0.962583368747214
"2407",0.101842170269131
"2408",0.792411895051318
"2409",1.28287380718461e-11
"2410",0
"2411",0.134686834884964
"2412",0.575676002215816
"2413",0.00780194436960546
"2414",0.731950360770908
"2415",7.63370733292135e-09
"2416",0
"2417",0
"2418",0
"2419",0
"2420",0
"2421",0.018203170632344
"2422",0.0537875516575135
"2423",0.422101823590134
"2424",0.0374662361398826
"2425",0.316515088694412
"2426",0.782510283349092
"2427",0.05805019867772
"2428",0.676174463027401
"2429",0.912299704834004
"2430",0.000558889380162575
"2431",0.0207044500386979
"2432",0.104129240424372
"2433",0.0376365346171238
"2434",0
"2435",0
"2436",0.0409823068314494
"2437",0.403951766073518
"2438",0.368160138568275
"2439",0.0551473018591357
"2440",0.0650697538885964
"2441",0
"2442",0.00176451979312497
"2443",0.0912269508890937
"2444",0.891416080838596
"2445",0.199710033367444
"2446",0.459064971808224
"2447",0.999855033961447
"2448",0.247034485949912
"2449",0.613999067505606
"2450",0.000168405370650659
"2451",0.0992121491289655
"2452",6.89115431384835e-13
"2453",0.294258208804362
"2454",0.115823638294681
"2455",4.22006873890268e-12
"2456",0
"2457",0
"2458",1.53083235165941e-06
"2459",0.138729308929576
"2460",0.00081224211396691
"2461",0
"2462",0
"2463",0.223122925812565
"2464",0.464210154380588
"2465",0
"2466",0
"2467",0.0134803749152762
"2468",0
"2469",0.234727122063434
"2470",0.0636720247032838
"2471",1.3106048468714e-09
"2472",0.970524243605216
"2473",0.265294737764157
"2474",0.00308566556224565
"2475",0.78375253196008
"2476",0.670191280539089
"2477",0.322102279155706
"2478",4.44089209850063e-16
"2479",0
"2480",0.158486505099258
"2481",0
"2482",0
"2483",0.69883448863408
"2484",0.472348492098843
"2485",0.888718977666786
"2486",0.372051232988733
"2487",0
"2488",0
"2489",0
"2490",0
"2491",5.09776268975415e-08
"2492",0
"2493",0
"2494",0.747595326021914
"2495",0
"2496",0
"2497",0.13818652050132
"2498",2.28841279259484e-10
"2499",2.35356178990287e-12
"2500",0.74585633149979
"2501",0.731040714068658
"2502",2.78718297620495e-05
"2503",0
"2504",0
"2505",0.567490831275759
"2506",4.89413176651965e-09
"2507",0.971598558187567
"2508",0.299675636328174
"2509",0.495131042706352
"2510",0.212107711765719
"2511",0
"2512",0.50660145209893
"2513",0
"2514",0
"2515",0.000341590718656026
"2516",0.77303991773539
"2517",0
"2518",0
"2519",3.05666603139798e-12
"2520",0.120898761871474
"2521",0.0894788369862052
"2522",0.0436961838561116
"2523",0
"2524",0.000110421521593351
"2525",0.00142876371738887
"2526",0.0169800633221908
"2527",0
"2528",0.00710367046616145
"2529",0.671520010212553
"2530",1.28055194004162e-07
"2531",1.55828306924732e-07
"2532",9.05679942153625e-09
"2533",0.00411255998434035
"2534",9.98635077711363e-05
"2535",0
"2536",0.599651319028533
"2537",0.437636940329758
"2538",8.87578899266828e-09
"2539",0.391332349842583
"2540",0
"2541",0
"2542",0.995333922278095
"2543",0.637763465006557
"2544",0.234483934554073
"2545",0
"2546",0.458059166945759
"2547",0.478374801697235
"2548",0.552797079970222
"2549",0.640730173388548
"2550",0.0049102041129977
"2551",0.900735595054221
"2552",0.590894661233559
"2553",0.0318927505407717
"2554",0.626399438556804
"2555",0.000141233947603125
"2556",0.202703134213571
"2557",0.230983822141772
"2558",0.163820560853478
"2559",0.181860952898235
"2560",0.904066230117309
"2561",0.287086973098041
"2562",0.939406915442083
"2563",0.836421861124363
"2564",0.429765216646723
"2565",0.738663129168244
"2566",0.0782571094963593
"2567",0.187308133817438
"2568",0.284078037214174
"2569",0.29505092376276
"2570",0
"2571",0
"2572",0.00507450273102983
"2573",0.26636921577863
"2574",3.3256545850513e-07
"2575",2.5266898517895e-06
"2576",0
"2577",0.164289425084932
"2578",0.552372906645465
"2579",0.344289061864316
"2580",0.348616395273446
"2581",0.575064598193189
"2582",0.773724423803921
"2583",0.974634085279928
"2584",0.908466314399451
"2585",0.0105499536326729
"2586",0.765713051326762
"2587",0.00181306361712197
"2588",0
"2589",0.0492263561390952
"2590",0.0293607454177772
"2591",0.627328457177352
"2592",0.907445704179417
"2593",0.209220761381051
"2594",0.401485019727298
"2595",0.022037978187189
"2596",0.966239842359706
"2597",0.0730016150546997
"2598",0.599074333677404
"2599",5.04496444619917e-12
"2600",0.918528042306584
"2601",0.97777670676396
"2602",0.191022394387851
"2603",0.546709489902683
"2604",0.659522637993875
"2605",0.143867232428296
"2606",0.0704020183999252
"2607",0.000901275364911247
"2608",0.199672631388379
"2609",0.015210010107866
"2610",0.244893198842865
"2611",0.810452459840775
"2612",0.632157216859513
"2613",0.0298946666652854
"2614",0.556537574676007
"2615",0.363769188957748
"2616",0
"2617",0
"2618",0.112843242428942
"2619",0.0594809394174343
"2620",0
"2621",0.842638819987229
"2622",0.531473827880755
"2623",0.865618987371138
"2624",0.175235430239482
"2625",0.862092097013941
"2626",0.322805817270063
"2627",0.252643607274432
"2628",0.0107710207647856
"2629",0.56752071348237
"2630",0
"2631",0
"2632",0
"2633",0.0450361558142788
"2634",0.0417379442125765
"2635",0.594969343562015
"2636",0.244702791940072
"2637",0.00217633134794792
"2638",0
"2639",2.96429547574917e-14
"2640",2.08656089986103e-05
"2641",2.38364883387021e-13
"2642",0.395667936345666
"2643",1.41997524849558e-13
"2644",0.230295228078625
"2645",0.331437982337533
"2646",1.55431223447522e-14
"2647",0.00202334741995769
"2648",0.192106461372863
"2649",0
"2650",0.480983766508557
"2651",0.930092678448935
"2652",0.14816719909035
"2653",0.137693655341151
"2654",0
"2655",0.181872097186215
"2656",0.105651783453386
"2657",0
"2658",0.929390680417106
"2659",2.71251848649179e-07
"2660",0
"2661",0.510448074635751
"2662",0.088990479081655
"2663",0
"2664",0.00571131065740804
"2665",0.771093239202307
"2666",7.03770375309887e-13
"2667",0.492319370634327
"2668",0.588233565733959
"2669",1.49036172292227e-09
"2670",0
"2671",1.00565622496163e-09
"2672",0.90539011996392
"2673",1.26063633439921e-05
"2674",0.9479466871191
"2675",0
"2676",0
"2677",1.5596588798239e-08
"2678",0
"2679",0
"2680",1.56319401867222e-13
"2681",2.92753824071568e-07
"2682",0.0301983884996124
"2683",0
"2684",4.81306661193059e-10
"2685",9.93649607039515e-14
"2686",0.263610512422348
"2687",0.0944664339189525
"2688",2.44249065417534e-15
"2689",0.130407320644437
"2690",0.173748241259533
"2691",0.269722371432293
"2692",0.363410245228509
"2693",0.0325306104170412
"2694",0
"2695",0.0181499180789142
"2696",0.0251257566802846
"2697",0.820264717907541
"2698",0.134175342163112
"2699",0.196789870133208
"2700",0
"2701",0.729654321649885
"2702",0.0930064096287747
"2703",0.81735373259985
"2704",0.619700959331211
"2705",0.205084119480052
"2706",0.881664970644499
"2707",0.437282958087478
"2708",0.704003782294165
"2709",0.433102306396416
"2710",0.590166686227524
"2711",1.80878356736969e-09
"2712",0.980983719966875
"2713",0.258597795628466
"2714",0
"2715",0.601147522183218
"2716",0.730326096274673
"2717",0.128634398420381
"2718",0.776786944605483
"2719",0.0798502416498128
"2720",0.854993399731446
"2721",0.13364273360695
"2722",0.414341905038111
"2723",0.0277081641452511
"2724",0.490672595763254
"2725",0.580818029102254
"2726",0.341005869135583
"2727",0.210446781826741
"2728",0.332475659298504
"2729",0.324961024642622
"2730",0.000196044382234639
"2731",0.845985338525364
"2732",0.147435619049687
"2733",0.0113027861946242
"2734",0.0193852535960565
"2735",0.729050707197611
"2736",0
"2737",0.446719323744271
"2738",0
"2739",0.10291862721289
"2740",0.0474963386392617
"2741",0.977208714013988
"2742",0.0401455116012818
"2743",0.352574866265298
"2744",0.720313747443641
"2745",0.07490281527361
"2746",0.102988303369475
"2747",0.447770573413127
"2748",1.05343356482379e-07
"2749",0
"2750",0.692427226968355
"2751",0.040591875574115
"2752",0.0173132232503214
"2753",0.53750883432849
"2754",0.658856616495614
"2755",0.0295096978515877
"2756",0.0012114649240319
"2757",0.539250026890271
"2758",0.0386828229342492
"2759",0.315831928371652
"2760",0.520720489303815
"2761",0.611066950552142
"2762",0
"2763",0.335315963977685
"2764",0.00124497684775216
"2765",0.0277536834927159
"2766",0.453332455117418
"2767",5.66579005933932e-10
"2768",5.98656679784426e-11
"2769",0.632073794057491
"2770",0.834723172897673
"2771",0.470554654358324
"2772",0.250007896195163
"2773",0
"2774",2.32323049687011e-11
"2775",0
"2776",0.440211057119308
"2777",0.198213744118018
"2778",0
"2779",0.396256499685565
"2780",0.00138252506620451
"2781",1.02903499055174e-08
"2782",0.341117133117214
"2783",0.0159203232687871
"2784",0.0842340285342824
"2785",0
"2786",0
"2787",2.89768209427166e-14
"2788",0
"2789",0.309636588831644
"2790",0.0499190730232703
"2791",6.88338275267597e-15
"2792",0.0345301959329128
"2793",0.749085979386651
"2794",0.300102903456592
"2795",0.00368659604124444
"2796",0.689383242234886
"2797",0.935742579459066
"2798",0.0425613253193133
"2799",0.975502738655323
"2800",0.861033031997212
"2801",0
"2802",0
"2803",0.340265157014985
"2804",0
"2805",0.0449331384978268
"2806",0.307651938819875
"2807",0.299897436671889
"2808",0.100548600425416
"2809",0.437927932412682
"2810",0.230006364219015
"2811",0.343581539418674
"2812",0
"2813",0
"2814",0.356161790892865
"2815",0.612198362769613
"2816",0
"2817",0.616386272147212
"2818",0.751353366327466
"2819",0.520817474754043
"2820",0.428059499396583
"2821",0.729858540227582
"2822",0
"2823",0.191050258652914
"2824",0.151197547727684
"2825",0.98015746594381
"2826",0.115530243470963
"2827",0.767183104020938
"2828",0
"2829",0.682839265957422
"2830",0.634060350481732
"2831",0
"2832",3.6231457271052e-06
"2833",0
"2834",0
"2835",0
"2836",0.00194481945386482
"2837",0
"2838",0
"2839",0.415052935756088
"2840",0.998536809879432
"2841",0.268271327029717
"2842",0.543539644689424
"2843",0.0260605648599446
"2844",0.792756238642405
"2845",0.143981921174808
"2846",0.889302978617978
"2847",0.943515939367694
"2848",0.598540324082573
"2849",0.698713714902818
"2850",0.640387149419315
"2851",0.212733838561987
"2852",0.363793094179489
"2853",0.00436826638380561
"2854",0.0731332895179877
"2855",0.52700893866932
"2856",0.492694263982533
"2857",0.917956621827581
"2858",0.270096254417649
"2859",0.490122867079556
"2860",0
"2861",4.91723159512514e-06
"2862",0
"2863",0
"2864",0.0652815419780045
"2865",0.0445724654445144
"2866",0.00537361882901777
"2867",0.00817618881578441
"2868",0.221862834878085
"2869",0.058601498293248
"2870",0
"2871",0
"2872",0
"2873",0
"2874",0
"2875",0
"2876",0
"2877",0
"2878",0
"2879",0.00177979576606913
"2880",0.0342497660607548
"2881",0.0527825174132845
"2882",0.769798683507616
"2883",0.5720603582539
"2884",0.0519689885023847
"2885",0.210721366907161
"2886",0.957625594178333
"2887",0
"2888",0.472683163750338
"2889",1.06513686759513e-11
"2890",0.881353619953095
"2891",0.272666307918664
"2892",0.310470395273345
"2893",0
"2894",0
"2895",0.0429714537605549
"2896",0.328956046275354
"2897",0.258561163323654
"2898",0.912435994511152
"2899",0.0229578663237494
"2900",8.36772963852539e-06
"2901",6.14538420151689e-11
"2902",0
"2903",0.447005113096032
"2904",1.11022302462516e-16
"2905",0.364019819400541
"2906",0.00641198623466743
"2907",2.12544841426965e-05
"2908",0
"2909",0.00817746209465453
"2910",0.00119306442563094
"2911",0.559576578049245
"2912",0.583143408015601
"2913",6.55031584528842e-14
"2914",0.399522955736634
"2915",0.851860834348211
"2916",0.47318624957254
"2917",0
"2918",1.11617456866053e-06
"2919",0
"2920",0.0640373126913105
"2921",0
"2922",0
"2923",0.518975115528467
"2924",0
"2925",0
"2926",0
"2927",0.105821452553937
"2928",0.180603530988477
"2929",0
"2930",0
"2931",0
"2932",0.038228546963601
"2933",0.570420245596152
"2934",0.949003858409539
"2935",0.00280220216033444
"2936",0.615938735967066
"2937",0
"2938",0
"2939",0.000285123862612813
"2940",0.578546595752247
"2941",0.379061207002624
"2942",5.49560397189452e-14
"2943",6.2664127775669e-08
"2944",0
"2945",0.16705994996678
"2946",0
"2947",0.085135585976022
"2948",6.39521768874829e-12
"2949",0
"2950",0
"2951",0
"2952",0.0233272635106951
"2953",0.0612361189790348
"2954",0.934405603444552
"2955",0
"2956",0.872279850243536
"2957",0
"2958",0
"2959",2.79669622793577e-07
"2960",0.575872701457616
"2961",0
"2962",0.0369409758000915
"2963",1.52544643583497e-13
"2964",0.153108754123172
"2965",0.417810110885998
"2966",0.712628644958589
"2967",0.0886382385659569
"2968",0.00654162864922214
"2969",0.000865403002114573
"2970",0.114269812313358
"2971",0.251828174187457
"2972",0.801840046832176
"2973",0.823166241412187
"2974",0.580579836088429
"2975",0.636407671590433
"2976",0.405765769600613
"2977",0.00174654246653105
"2978",1.54891029586768e-05
"2979",0.606944188383596
"2980",0.437641524141935
"2981",0.255485719528057
"2982",0.0197324829406728
"2983",7.24253990114221e-12
"2984",0.9707023730535
"2985",0.0290032045130875
"2986",0.0285013868037327
"2987",0.908075998590586
"2988",0.819482405724683
"2989",0.000861467812336647
"2990",0.845637908400218
"2991",0.543163223015968
"2992",0.314411255212596
"2993",0.0180832509699288
"2994",0.732492469902195
"2995",0.977296789157148
"2996",0
"2997",3.55826479392363e-13
"2998",0.000891342551074037
"2999",0
"3000",0
"3001",0.30486436157236
"3002",0
"3003",0.000956450382550877
"3004",0.0527591228967172
"3005",0.48182888316878
"3006",0.31832051949954
"3007",0.00186285427759525
"3008",0.0440645876551351
"3009",9.92245418306448e-05
"3010",0.422271147420461
"3011",0.398720694481004
"3012",0.000300317006969197
"3013",0.090297357876104
"3014",0
"3015",0
"3016",0.160993116391646
"3017",0
"3018",8.88178419700125e-16
"3019",0.687903120005419
"3020",2.19654831721261e-05
"3021",0.00639938518288163
"3022",0.0210780414461428
"3023",0.49058735038503
"3024",2.58821801768505e-07
"3025",0
"3026",1.81543864941069e-07
"3027",0
"3028",0.000105151273607218
"3029",2.69782418627074e-10
"3030",1.40147488059128e-08
"3031",0.00281956676241479
"3032",0.44041860912203
"3033",0.789668814725644
"3034",0.448509091332683
"3035",0.545873355649841
"3036",5.71593863130104e-07
"3037",0.0214684403787367
"3038",9.66534605684188e-07
"3039",0
"3040",0.483697946332929
"3041",1.33548949676765e-09
"3042",0.584522908819729
"3043",0
"3044",0
"3045",0.444677913125773
"3046",0.821523853441374
"3047",0.0344142318406391
"3048",1.01066766067248e-09
"3049",0
"3050",0.15617764337847
"3051",0
"3052",0
"3053",0.0767775954299525
"3054",2.05969273525675e-07
"3055",6.44477452516057e-08
"3056",0.00411646060116855
"3057",0
"3058",0.0084629650134791
"3059",0.556422666351025
"3060",0
"3061",0.00689148977744825
"3062",0
"3063",1.33226762955019e-15
"3064",2.91350543357716e-07
"3065",0.814777817266484
"3066",0.0075110811784922
"3067",0.0347952249689277
"3068",0.265123503652151
"3069",0
"3070",0.00616377448153083
"3071",0.558659171243334
"3072",0.000701165928455594
"3073",0.33823082631751
"3074",0.0186432285844688
"3075",0.0162069753075206
"3076",1.22124532708767e-15
"3077",0
"3078",0.266492070926687
"3079",0.17513891623392
"3080",0.161307176821002
"3081",0.0350254551695818
"3082",0.363018681396031
"3083",0.151762058409666
"3084",0.902806751257003
"3085",0.287537760914858
"3086",0
"3087",0.000236116194152536
"3088",0.000214635120841078
"3089",9.06752894991314e-10
"3090",0.951411251335884
"3091",0
"3092",1.10710777212475e-08
