"","x"
"1",0.0163191224298747
"2",2.17702544880183e-09
"3",0.000813348963815463
"4",0.00341999229752521
"5",1.51436465245514e-06
"6",0
"7",3.34177130412172e-14
"8",6.07031092059174e-11
"9",0.00356792301413256
"10",2.22044604925031e-16
"11",0.002713999249355
"12",0.0140286188122033
"13",2.62121004789284e-05
"14",0.0229245133647507
"15",0.330668801785857
"16",0
"17",1.09775522005862e-11
"18",0.000144574174360979
"19",2.23407391619634e-06
"20",1.11022302462516e-16
"21",0.000485369713335571
"22",1.22041998729117e-09
"23",6.87345151831886e-05
"24",0
"25",0
"26",0
"27",0.0527831577303187
"28",1.38653144299283e-07
"29",0.186709468558909
"30",5.01752106529807e-09
"31",1.42718614704052e-10
"32",9.82467083798788e-07
"33",0
"34",0.0405217098632484
"35",0.143553018685159
"36",0
"37",0.000549213607707544
"38",0.908723370901938
"39",3.68565547526067e-07
"40",0.0165444980643804
"41",0.00190190414191116
"42",6.75358567958639e-08
"43",0.0857181899067676
"44",0.315224401385804
"45",1.04049400062589e-06
"46",1.13828088480483e-05
"47",0.729202604929732
"48",0.999736973710126
"49",0.115965775957128
"50",0
"51",0
"52",7.30641103174889e-10
"53",0.0156572703333291
"54",0.999999999032025
"55",0.997262450212389
"56",0.000409879847701911
"57",0
"58",6.29696295106896e-11
"59",0.00210569942902072
"60",9.69949622364741e-06
"61",0.000240449007169796
"62",5.55111512312578e-16
"63",0
"64",0
"65",0.87439981544042
"66",0.0283140569551569
"67",0
"68",0.055337435353306
"69",0.000579640938251247
"70",9.6223339096646e-07
"71",0.999492689342602
"72",1.16625995527642e-08
"73",0.0281302588877015
"74",1.07433525464717e-06
"75",6.54003629030342e-10
"76",0.147363528545024
"77",1.27338958177958e-06
"78",1.17120606601961e-06
"79",0.309844911181231
"80",0.92557774230505
"81",5.38458166943201e-14
"82",0.0852734829951213
"83",9.51498524649486e-05
"84",0.935219686956609
"85",0.318540332506564
"86",1.33226762955019e-15
"87",1.32649446982214e-12
"88",7.13256342876889e-10
"89",0.136577196026029
"90",0.00909938137802369
"91",9.75528435809281e-10
"92",3.24062998657837e-12
"93",0
"94",0.000182939330437892
"95",0
"96",0.191957410088464
"97",0.000248625737185537
"98",8.55545412292713e-10
"99",5.75006708913861e-12
"100",1.41236071542483e-05
"101",0.0206216824687081
"102",0.000195299712561714
"103",1.4516440272061e-09
"104",0.0165076679064488
"105",1.31774596610068e-05
"106",0.000222892091293114
"107",0.000283369355070673
"108",0.0369006773902349
"109",2.47836196010098e-11
"110",1.71751501909512e-13
"111",3.3344438321592e-12
"112",0
"113",0
"114",0
"115",0
"116",0
"117",0
"118",0
"119",9.82294322349198e-06
"120",0.00495651033896904
"121",0.0663760058092607
"122",4.1613398160667e-07
"123",0.00803181727571778
"124",7.43411827885954e-05
"125",0
"126",1.00454222717872e-09
"127",3.27388893772707e-10
"128",2.57107779511045e-10
"129",3.48177042752695e-12
"130",1.39685485400776e-10
"131",0
"132",0
"133",4.61962799480631e-06
"134",3.22147660369865e-06
"135",0
"136",7.7715611723761e-16
"137",0.147454499925802
"138",2.41251463251047e-13
"139",0.00189656741076349
"140",2.95584318443787e-06
"141",0
"142",0.000101029737183289
"143",6.88338275267597e-13
"144",1.08024700296028e-13
"145",7.80303134095828e-06
"146",1.11022302462516e-16
"147",0
"148",0
"149",0.000926476353824257
"150",8.88760507744557e-07
"151",0.000183882773471478
"152",0.0916103127051664
"153",1.06592989990162e-09
"154",5.7646110107612e-11
"155",1.13277488722474e-07
"156",1.65526192752452e-09
"157",2.96207502969992e-13
"158",0
"159",5.65267994057095e-05
"160",3.05568943933521e-05
"161",1.1243228570379e-11
"162",0
"163",1.24289999292593e-06
"164",1.02076125330086e-11
"165",2.56943799570308e-10
"166",4.24442599652464e-05
"167",0.0310448716434145
"168",0.0267106129992902
"169",5.55111512312578e-16
"170",4.49369985666692e-10
"171",3.33066907387547e-15
"172",2.15530926439556e-11
"173",6.89968082667747e-11
"174",1.91024973617004e-12
"175",0.0358374703372099
"176",0.0452941349769391
"177",0
"178",1.16344902822973e-07
"179",5.16600362920894e-06
"180",0
"181",6.09275213281357e-07
"182",0
"183",2.00403024785967e-05
"184",0.013239589531739
"185",0
"186",0
"187",3.77475828372553e-15
"188",0.000870575812237484
"189",0.000346759876780234
"190",8.89656943703354e-06
"191",0.0539078424960697
"192",2.39830377779526e-12
"193",3.27949017941975e-08
"194",0.0177687243030037
"195",2.54659628005083e-05
"196",4.72386574301709e-11
"197",0.173884464701704
"198",0.00527765764524446
"199",0.000322802094932406
"200",0.00928214888476075
"201",1.11022302462516e-16
"202",0.0123210725324853
"203",0
"204",4.1467523520522e-06
"205",2.23656271902684e-06
"206",0.000474393418155583
"207",7.36687054025964e-07
"208",0.000588782810013511
"209",3.7502845273707e-10
"210",1.89469728795189e-09
"211",7.69903510271508e-05
"212",1.34725341993658e-06
"213",0.252658620624066
"214",7.60215651318674e-07
"215",2.53438381392357e-11
"216",3.54145426868513e-05
"217",0.286269961288883
"218",8.99280649946377e-15
"219",8.23485724055217e-12
"220",0.00109316469609821
"221",2.87991945624455e-06
"222",6.02735861221504e-10
"223",0
"224",0.00559483909029157
"225",0
"226",0.0517859269796662
"227",0.243806412346827
"228",0
"229",8.78909772805692e-05
"230",8.42110568088916e-06
"231",5.38752598089332e-10
"232",0
"233",6.66133814775094e-16
"234",0.00422678859112036
"235",2.00950367457153e-14
"236",0.995021831283867
"237",2.00366390146201e-11
"238",1.4869994124922e-11
"239",6.7870959630234e-08
"240",0
"241",4.42369810782495e-08
"242",0
"243",4.87557327844002e-10
"244",4.81716910566421e-05
"245",2.2937984844873e-11
"246",1.4257171321308e-07
"247",8.01581023779363e-12
"248",0.108428885716159
"249",2.88657986402541e-15
"250",5.19471505477931e-07
"251",0
"252",2.63837174330206e-10
"253",0.364042239243428
"254",0
"255",0.000416094350198293
"256",9.04077186014707e-06
"257",0.000660789927191319
"258",1.90292226420752e-13
"259",0.000333253004083822
"260",1.06806785638014e-11
"261",0.290080536887366
"262",2.33919121739312e-07
"263",0.0115247816450375
"264",0
"265",0.0971415175882474
"266",1.49304591245958e-07
"267",4.93289466385605e-07
"268",0
"269",0.995855783126242
"270",3.7847259903856e-07
"271",2.59306054668507e-05
"272",0.983095767108338
"273",0.0846009678429097
"274",2.05660713958888e-06
"275",0.000761185620344218
"276",0.476545783596221
"277",0
"278",0.0172368464611369
"279",4.15208017190416e-06
"280",9.56866935166722e-05
"281",1.09162573189714e-05
"282",0.179642919208891
"283",0.000747184257724354
"284",0.0532083506756037
"285",1.15134419775842e-07
"286",0.0135132675257131
"287",1.63721176702492e-05
"288",0.403081576533492
"289",0.0132660760042679
"290",4.4086956307865e-13
"291",0.0119190350655086
"292",0.0171845519025394
"293",0.0225709191833192
"294",0.00740473489285554
"295",0.000352499928122252
"296",0.00639379516999228
"297",0.0528835574378225
"298",3.65384261150625e-05
"299",0.129756527254402
"300",6.35976460383603e-09
"301",0.00305032877794253
"302",8.83318357347562e-08
"303",2.52327299288257e-06
"304",2.52520226950992e-11
"305",8.83848549904087e-13
"306",5.6334938514091e-07
"307",0.000349364365766047
"308",0.00587465072589455
"309",5.64857315465961e-05
"310",6.75164734431632e-06
"311",2.34656738484773e-12
"312",2.10705329850569e-08
"313",6.25076482796416e-08
"314",2.30106941279118e-08
"315",0.000609644031806966
"316",3.31350169524569e-10
"317",0.0016596236567693
"318",0.000102256838001025
"319",0.323661981056086
"320",1.05194651731644e-05
"321",0.00160352436719513
"322",6.78457048063352e-05
"323",1.73425795824134e-06
"324",0.64144962654977
"325",0.00464886714439627
"326",0.583850077859557
"327",0.00627589111070159
"328",0.89948470206138
"329",0
"330",0.000618758003898323
"331",0
"332",0.213316078281004
"333",1.43641543104422e-10
"334",0.0359024625265486
"335",0.0110543729347375
"336",0
"337",2.25271146181427e-09
"338",1.11022302462516e-15
"339",2.24763863077015e-09
"340",0.000705633668627415
"341",3.33066907387547e-16
"342",8.99280649946377e-15
"343",3.25917697496791e-07
"344",0.774317484920904
"345",2.74626460916583e-06
"346",6.9595596241534e-07
"347",2.33897512469383e-09
"348",9.99200722162641e-16
"349",0
"350",5.59494342600164e-06
"351",0
"352",6.60974941446568e-10
"353",3.71864805615019e-09
"354",0.0299749896067406
"355",0
"356",1.01937347452008e-11
"357",0.000160306342484984
"358",1.86395343604318e-12
"359",8.1379347705024e-14
"360",0.109583444663011
"361",0.0209767510358015
"362",0
"363",0.0673122933969441
"364",2.72559784963988e-07
"365",0
"366",0
"367",0.000462880249095243
"368",0
"369",1.7748105662907e-07
"370",0
"371",7.98433019699729e-09
"372",1.38036300034727e-06
"373",0
"374",0.329517374971516
"375",0.0107286822277829
"376",0.140951687949653
"377",6.99359783418174e-08
"378",0.132550595360205
"379",0.000393784735949421
"380",0
"381",2.78340658645959e-05
"382",0
"383",0.227599993909913
"384",5.62348817512159e-08
"385",1.47573442910165e-07
"386",0.0170062075436077
"387",0.00268854878918712
"388",0.778332718291131
"389",8.78439003204612e-07
"390",0
"391",0.000396613418535585
"392",5.76772740679132e-10
"393",0.00439868075442096
"394",5.36048281342127e-05
"395",1.67218095803445e-06
"396",0.00066847331912101
"397",0.00129537038138949
"398",0.113403914435023
"399",2.55946670857377e-07
"400",0.305036950496292
"401",0.000495322646104523
"402",0.00132956671934359
"403",2.33354994050305e-06
"404",0
"405",0.00561362478458249
"406",2.0562006238789e-05
"407",0.000107337118753992
"408",0.00131650275983408
"409",0.000331520538864205
"410",0.869024365500921
"411",0.00020376038314962
"412",0.0851359544273701
"413",1.03444767474148e-06
"414",0.134262816980508
"415",0.394186601109731
"416",0.00109965574390392
"417",6.96067375142162e-05
"418",0.115912778077336
"419",0.465451384984016
"420",0.000410302974111931
"421",0
"422",2.18453409845942e-05
"423",0.483494079284844
"424",5.3553842083609e-05
"425",2.61409362822818e-07
"426",0.0465112765495103
"427",4.09471140270234e-05
"428",0.00123252455189626
"429",6.10272848569071e-05
"430",0.0148450864878816
"431",0.403770761107217
"432",3.99829672703689e-08
"433",0.0629022718969986
"434",0.00863142098930847
"435",0.0189618377338946
"436",0.969128240930546
"437",0.211715153801955
"438",0.000197884250614955
"439",0.0676373973859781
"440",3.16729973430796e-05
"441",2.34897925219801e-05
"442",0.453461458182908
"443",0.0306383082204527
"444",0
"445",0.0545063325180709
"446",0.994632423338616
"447",3.55748592806293e-08
"448",0.680045278562163
"449",0.756514728482871
"450",0.000147701861240357
"451",0.947215002563626
"452",5.37550151962218e-05
"453",0.0441633901497581
"454",6.7640452794393e-08
"455",1.52612712567279e-06
"456",0
"457",3.98165237812664e-05
"458",0.784968197632181
"459",0.0949442764927741
"460",0
"461",0.300992522696097
"462",0.0267640814613986
"463",0.986556867821471
"464",2.64340258980811e-05
"465",0.221761778991176
"466",0.00042696246263374
"467",4.24574506044939e-05
"468",0.01238391276772
"469",1.23761001447065e-11
"470",0.0207292711700324
"471",0.754380013143591
"472",1.11473843489307e-08
"473",0.126632782181746
"474",0.0324485004984987
"475",0.00172667476153066
"476",0.000558199474373189
"477",0.201589812156449
"478",0.0957686090011958
"479",0.014073544162334
"480",0.372721453059213
"481",6.37380361193651e-05
"482",5.19581562219429e-08
"483",0.205949148674993
"484",0.581615416335913
"485",0.0871751923195544
"486",0.87359976254043
"487",7.44306057898214e-08
"488",0.000179601570284404
"489",6.98756282058177e-07
"490",1.69748603100484e-05
"491",0.995408327365354
"492",0
"493",0
"494",0.165953299428059
"495",6.87256908238343e-06
"496",2.18829062759163e-07
"497",0.00161280377261708
"498",0.21091364686639
"499",1.1603007443739e-10
"500",2.69440789001374e-05
"501",0.200250721019199
"502",0.176894898132
"503",1.08371220108872e-07
"504",0.000925925051925125
"505",0.000330878955503544
"506",0.000343244445367263
"507",0.0189540505525048
"508",0.0510314336640337
"509",0.46557316652553
"510",0.00043075086847244
"511",0
"512",0.156658230060802
"513",0.000986727162819223
"514",0.0141263942440334
"515",3.20212296822664e-06
"516",6.51700915454967e-14
"517",5.19263299025852e-10
"518",1.62160729288985e-10
"519",3.4800402919255e-05
"520",1.22124532708767e-14
"521",6.22426883367666e-08
"522",0.00102892050844638
"523",0.87555621376586
"524",0.00025995856297667
"525",0.16383131046998
"526",0.733787714126557
"527",0.0018482428975104
"528",0.000238886830973284
"529",0.149343493844721
"530",0.00013246143672363
"531",0.000141032114169715
"532",0.000123000322956202
"533",0
"534",1.40998324127395e-14
"535",4.72851429789145e-07
"536",0.657558491797811
"537",2.55383777458817e-08
"538",0.00904488006482163
"539",0.097171354295899
"540",0.0323581105979059
"541",8.05793209934791e-11
"542",0.0225539744608045
"543",0.0947076592828175
"544",6.81454892514921e-13
"545",0.102823835900661
"546",0.0177963526921133
"547",0.00138595764574545
"548",0.0335488227029714
"549",8.27548229942465e-09
"550",0.353399242977618
"551",0.0695053742823208
"552",0
"553",0.0587785959878345
"554",0.110154300017227
"555",1.05304989098665e-05
"556",0
"557",0.358393140014439
"558",0.995741492169867
"559",1.28586126191266e-08
"560",0.350996712730679
"561",0.000218463660110135
"562",1.28785870856518e-14
"563",2.52428918878778e-08
"564",0
"565",0.751423560537692
"566",9.50204968588331e-05
"567",0.000158922695404962
"568",0.999196080011658
"569",0.00818993160959347
"570",0.164889686037179
"571",0.00170396400589234
"572",0.0940638816199292
"573",0.805950344343625
"574",1.99018579394306e-12
"575",0.349872272528646
"576",0.00343672668398798
"577",0.120184566642001
"578",0.013655389812019
"579",0.000724574387241494
"580",0.0236884071476915
"581",3.89659472889159e-05
"582",0.0574317776482544
"583",0.575326807265487
"584",0
"585",0.541424719371487
"586",0.113287525003216
"587",0.597447847020043
"588",3.9412464403199e-09
"589",0.0583630776636336
"590",2.03036769952369e-07
"591",0.00724014153377783
"592",0.624003647959096
"593",1.17325098908383e-05
"594",0.0308014684677512
"595",0.54136716295872
"596",8.17013123821653e-12
"597",0.00105890294946642
"598",0.04113391934729
"599",0.0159465501004861
"600",0
"601",1.1599800597839e-06
"602",0.214601177141841
"603",1
"604",0
"605",0
"606",0
"607",0.0484187124250526
"608",0
"609",0
"610",1.58071333800081e-11
"611",0
"612",2.5555753522255e-06
"613",0.598846825415328
"614",0.000214214238708377
"615",0
"616",0
"617",0.00359260935200956
"618",0.641785076504386
"619",0
"620",0.00343242705510827
"621",4.11468941818871e-06
"622",5.45470930863878e-05
"623",0
"624",1.51684609173142e-06
"625",0
"626",0.0151317912545832
"627",6.13149164774285e-09
"628",0
"629",0
"630",9.02611319020252e-14
"631",0
"632",3.10923334856383e-08
"633",0.00922222738436362
"634",0.00909425456013613
"635",1.57005409592292e-05
"636",0.1304497347331
"637",0
"638",1.95285010384794e-10
"639",0.160357568910114
"640",0.0471203586924993
"641",0.999803362903729
"642",NA
"643",0
"644",0
"645",NA
"646",0
"647",0
"648",1
"649",0
"650",0
"651",NA
"652",NA
"653",NA
"654",NA
"655",0
"656",NA
"657",1
"658",0
"659",1
"660",0
"661",NA
"662",1
"663",1
"664",NA
"665",NA
"666",1
"667",0
"668",0
"669",0
"670",NA
"671",NA
"672",NA
"673",NA
"674",NA
"675",0
"676",NA
"677",NA
"678",0
"679",NA
"680",0
"681",NA
"682",NA
"683",NA
"684",1
"685",NA
"686",0
"687",0
"688",NA
"689",0.999999999999962
"690",1
"691",NA
"692",NA
"693",NA
"694",1
"695",1
"696",NA
"697",NA
"698",NA
"699",NA
"700",NA
"701",NA
"702",NA
"703",NA
"704",NA
"705",NA
"706",NA
"707",NA
"708",NA
"709",NA
"710",NA
"711",NA
"712",0
"713",NA
"714",NA
"715",NA
"716",NA
"717",NA
"718",NA
"719",NA
"720",NA
"721",0
"722",NA
"723",NA
"724",0
"725",NA
"726",NA
"727",NA
"728",NA
"729",NA
"730",NA
"731",0
"732",NA
"733",NA
"734",NA
"735",NA
"736",NA
"737",NA
"738",NA
"739",0
"740",NA
"741",NA
"742",0
"743",NA
"744",NA
"745",0
"746",NA
"747",1
"748",0
"749",0
"750",NA
"751",0
"752",0
"753",0
"754",0
"755",0
"756",0
"757",1
"758",1
"759",0
"760",0
"761",6.39031050297945e-11
"762",1
"763",1
"764",0
"765",1
"766",0.999999999910094
"767",0
"768",0.355647323021713
"769",0
"770",0
"771",NA
"772",1
"773",0.0559352668712225
"774",0
"775",0
"776",0
"777",0
"778",1
"779",0
"780",0
"781",0.999974790978047
"782",1
"783",1
"784",0.999811443311478
"785",0.992505752378266
"786",0.927726631549063
"787",0
"788",0
"789",NA
"790",0
"791",0
"792",0
"793",0
"794",0.541020729986708
"795",0
"796",1
"797",0
"798",0
"799",0.999999884591494
"800",1
"801",1
"802",0.000158294757873656
"803",1
"804",NA
"805",0
"806",0
"807",0
"808",NA
"809",1
"810",0
"811",0
"812",0
"813",0
"814",0
"815",0
"816",0
"817",0
"818",NA
"819",1
"820",0
"821",0
"822",1
"823",1
"824",0
"825",0
"826",NA
"827",0
"828",NA
"829",1
"830",1
"831",NA
"832",0
"833",1
"834",0
"835",0
"836",1
"837",1
"838",NA
"839",0
"840",NA
"841",0
"842",0
"843",0
"844",0
"845",0
"846",NA
"847",0
"848",NA
"849",0
"850",0
"851",NA
"852",NA
"853",NA
"854",NA
"855",1
"856",0.99997721084872
"857",NA
"858",NA
"859",NA
"860",NA
"861",NA
"862",NA
"863",0
"864",NA
"865",NA
"866",0
"867",0
"868",NA
"869",NA
"870",NA
"871",NA
"872",NA
"873",0
"874",NA
"875",NA
"876",NA
"877",NA
"878",NA
"879",0
"880",NA
"881",NA
"882",NA
"883",NA
"884",NA
"885",NA
"886",NA
"887",NA
"888",NA
"889",NA
"890",NA
"891",NA
"892",NA
"893",NA
"894",NA
"895",NA
"896",NA
"897",NA
"898",NA
"899",NA
"900",NA
"901",NA
"902",NA
"903",NA
"904",NA
"905",NA
"906",NA
"907",NA
"908",NA
"909",NA
"910",NA
"911",NA
"912",NA
"913",NA
"914",NA
"915",NA
"916",NA
"917",NA
"918",NA
"919",0
"920",NA
"921",NA
"922",NA
"923",NA
"924",NA
"925",NA
"926",NA
"927",NA
"928",NA
"929",NA
"930",NA
"931",NA
"932",NA
"933",NA
"934",NA
"935",NA
"936",NA
"937",NA
"938",NA
"939",NA
"940",NA
"941",NA
"942",NA
"943",NA
"944",NA
"945",NA
"946",NA
"947",NA
"948",NA
"949",NA
"950",NA
"951",NA
"952",NA
"953",NA
"954",NA
"955",NA
"956",NA
"957",NA
"958",NA
"959",NA
"960",NA
"961",NA
"962",NA
"963",NA
"964",NA
"965",NA
"966",NA
"967",NA
"968",NA
"969",NA
"970",NA
"971",NA
"972",NA
"973",NA
"974",NA
"975",NA
"976",NA
"977",NA
"978",NA
"979",NA
"980",NA
"981",NA
"982",NA
"983",NA
"984",NA
"985",NA
"986",NA
"987",0
"988",NA
"989",NA
"990",NA
"991",NA
"992",NA
"993",NA
"994",NA
"995",NA
"996",NA
"997",NA
"998",NA
"999",NA
"1000",NA
"1001",NA
"1002",NA
"1003",NA
"1004",NA
"1005",NA
"1006",NA
"1007",NA
"1008",NA
"1009",NA
"1010",NA
"1011",NA
"1012",NA
"1013",NA
"1014",NA
"1015",NA
"1016",NA
"1017",NA
"1018",NA
"1019",NA
"1020",NA
"1021",NA
"1022",NA
"1023",NA
"1024",NA
"1025",NA
"1026",NA
"1027",NA
"1028",NA
"1029",NA
"1030",NA
"1031",NA
"1032",NA
"1033",NA
"1034",NA
"1035",NA
"1036",NA
"1037",NA
"1038",NA
"1039",NA
"1040",NA
"1041",NA
"1042",NA
"1043",NA
"1044",NA
"1045",NA
"1046",NA
"1047",NA
"1048",NA
"1049",NA
"1050",NA
"1051",NA
"1052",NA
"1053",NA
"1054",NA
"1055",NA
"1056",NA
"1057",NA
"1058",NA
"1059",NA
"1060",NA
"1061",NA
"1062",NA
"1063",NA
"1064",NA
"1065",NA
"1066",NA
"1067",NA
"1068",NA
"1069",NA
"1070",NA
"1071",NA
"1072",NA
"1073",NA
"1074",NA
"1075",NA
"1076",NA
"1077",NA
"1078",NA
"1079",NA
"1080",NA
"1081",NA
"1082",NA
"1083",NA
"1084",NA
"1085",NA
"1086",NA
"1087",NA
"1088",NA
"1089",NA
"1090",NA
"1091",NA
"1092",NA
"1093",NA
"1094",NA
"1095",NA
"1096",NA
"1097",NA
"1098",NA
"1099",NA
"1100",NA
"1101",NA
"1102",NA
"1103",NA
"1104",NA
"1105",NA
"1106",NA
"1107",NA
"1108",NA
"1109",NA
"1110",NA
"1111",NA
"1112",NA
"1113",NA
"1114",NA
"1115",NA
"1116",NA
"1117",NA
"1118",NA
"1119",NA
"1120",NA
"1121",NA
"1122",NA
"1123",NA
"1124",NA
"1125",NA
"1126",NA
"1127",NA
"1128",NA
"1129",NA
"1130",NA
"1131",NA
"1132",NA
"1133",NA
"1134",NA
"1135",NA
"1136",NA
"1137",NA
"1138",NA
"1139",NA
"1140",NA
"1141",NA
"1142",NA
"1143",NA
"1144",NA
"1145",NA
"1146",NA
"1147",NA
"1148",NA
"1149",NA
"1150",NA
"1151",NA
"1152",NA
"1153",NA
"1154",NA
"1155",NA
"1156",NA
"1157",NA
"1158",NA
"1159",NA
"1160",NA
"1161",NA
"1162",0
"1163",NA
"1164",NA
"1165",NA
"1166",NA
"1167",NA
"1168",NA
"1169",NA
"1170",NA
"1171",NA
"1172",NA
"1173",NA
"1174",NA
"1175",NA
"1176",NA
"1177",NA
"1178",NA
"1179",NA
"1180",NA
"1181",NA
"1182",NA
"1183",NA
"1184",NA
"1185",NA
"1186",NA
"1187",NA
"1188",NA
"1189",NA
"1190",NA
"1191",NA
"1192",NA
"1193",NA
"1194",NA
"1195",NA
"1196",NA
"1197",NA
"1198",NA
"1199",NA
"1200",NA
"1201",NA
"1202",NA
"1203",NA
"1204",NA
"1205",NA
"1206",NA
"1207",NA
"1208",NA
"1209",NA
"1210",NA
"1211",NA
"1212",NA
"1213",NA
"1214",NA
"1215",NA
"1216",NA
"1217",NA
"1218",NA
"1219",NA
"1220",NA
"1221",NA
"1222",NA
"1223",NA
"1224",NA
"1225",NA
"1226",NA
"1227",NA
"1228",0
"1229",NA
"1230",NA
"1231",NA
"1232",NA
"1233",NA
"1234",NA
"1235",NA
"1236",NA
"1237",NA
"1238",NA
"1239",NA
"1240",NA
"1241",NA
"1242",NA
"1243",NA
"1244",NA
"1245",NA
"1246",NA
"1247",NA
"1248",NA
"1249",NA
"1250",NA
"1251",NA
"1252",NA
"1253",NA
"1254",NA
"1255",NA
"1256",NA
"1257",NA
"1258",NA
"1259",NA
"1260",NA
"1261",NA
"1262",NA
"1263",NA
"1264",NA
"1265",NA
"1266",NA
"1267",NA
"1268",NA
"1269",NA
"1270",NA
"1271",NA
"1272",NA
"1273",NA
"1274",NA
"1275",NA
"1276",NA
"1277",NA
"1278",NA
"1279",NA
"1280",NA
"1281",NA
"1282",NA
"1283",NA
"1284",NA
"1285",NA
"1286",NA
"1287",NA
"1288",NA
"1289",NA
"1290",NA
"1291",NA
"1292",NA
"1293",NA
"1294",NA
"1295",NA
"1296",NA
"1297",NA
"1298",0.862071726062049
"1299",0
"1300",NA
"1301",NA
"1302",NA
"1303",NA
"1304",NA
"1305",NA
"1306",NA
"1307",NA
"1308",NA
"1309",NA
"1310",NA
"1311",NA
"1312",NA
"1313",NA
"1314",NA
"1315",NA
"1316",NA
"1317",NA
"1318",NA
"1319",NA
"1320",NA
"1321",NA
"1322",NA
"1323",NA
"1324",NA
"1325",NA
"1326",NA
"1327",NA
"1328",NA
"1329",NA
"1330",NA
"1331",NA
"1332",NA
"1333",NA
"1334",NA
"1335",NA
"1336",NA
"1337",NA
"1338",NA
"1339",NA
"1340",NA
"1341",NA
"1342",NA
"1343",NA
"1344",NA
"1345",NA
"1346",NA
"1347",NA
"1348",NA
"1349",NA
"1350",NA
"1351",NA
"1352",NA
"1353",NA
"1354",NA
"1355",NA
"1356",NA
"1357",NA
"1358",NA
"1359",NA
"1360",NA
"1361",NA
"1362",NA
"1363",NA
"1364",NA
"1365",NA
"1366",NA
"1367",NA
"1368",NA
"1369",NA
"1370",NA
"1371",NA
"1372",NA
"1373",NA
"1374",NA
"1375",NA
"1376",NA
"1377",0
"1378",NA
"1379",NA
"1380",NA
"1381",NA
"1382",NA
"1383",NA
"1384",NA
"1385",NA
"1386",NA
"1387",NA
"1388",NA
"1389",NA
"1390",NA
"1391",NA
"1392",NA
"1393",NA
"1394",NA
"1395",NA
"1396",NA
"1397",NA
"1398",NA
"1399",NA
"1400",NA
"1401",NA
"1402",NA
"1403",NA
"1404",NA
"1405",NA
"1406",NA
"1407",NA
"1408",NA
"1409",NA
"1410",NA
"1411",NA
"1412",NA
"1413",NA
"1414",NA
"1415",NA
"1416",NA
"1417",NA
"1418",NA
"1419",NA
"1420",NA
"1421",NA
"1422",NA
"1423",NA
"1424",NA
"1425",NA
"1426",NA
"1427",NA
"1428",NA
"1429",NA
"1430",NA
"1431",NA
"1432",NA
"1433",NA
"1434",NA
"1435",NA
"1436",NA
"1437",NA
"1438",NA
"1439",0
"1440",NA
"1441",NA
"1442",NA
"1443",NA
"1444",NA
"1445",NA
"1446",NA
"1447",NA
"1448",NA
"1449",NA
"1450",NA
"1451",NA
"1452",NA
"1453",NA
"1454",NA
"1455",NA
"1456",NA
"1457",NA
"1458",NA
"1459",NA
"1460",NA
"1461",NA
"1462",NA
"1463",NA
"1464",NA
"1465",NA
"1466",NA
"1467",NA
"1468",NA
"1469",NA
"1470",NA
"1471",NA
"1472",NA
"1473",NA
"1474",NA
"1475",NA
"1476",NA
"1477",NA
"1478",NA
"1479",NA
"1480",NA
"1481",NA
"1482",NA
"1483",NA
"1484",NA
"1485",NA
"1486",NA
"1487",NA
"1488",NA
"1489",NA
"1490",NA
"1491",NA
"1492",NA
"1493",NA
"1494",NA
"1495",NA
"1496",NA
"1497",0
"1498",NA
"1499",NA
"1500",NA
"1501",NA
"1502",NA
"1503",NA
"1504",NA
"1505",NA
"1506",NA
"1507",NA
"1508",NA
"1509",NA
"1510",NA
"1511",NA
"1512",NA
"1513",NA
"1514",NA
"1515",NA
"1516",NA
"1517",NA
"1518",NA
"1519",NA
"1520",NA
"1521",NA
"1522",NA
"1523",NA
"1524",NA
"1525",NA
"1526",NA
"1527",NA
"1528",NA
"1529",NA
"1530",NA
"1531",NA
"1532",NA
"1533",NA
"1534",NA
"1535",NA
"1536",NA
"1537",NA
"1538",NA
"1539",NA
"1540",NA
"1541",NA
"1542",NA
"1543",NA
"1544",NA
"1545",NA
"1546",NA
"1547",NA
"1548",NA
"1549",NA
"1550",0
"1551",NA
"1552",NA
"1553",NA
"1554",NA
"1555",NA
"1556",NA
"1557",NA
"1558",NA
"1559",NA
"1560",NA
"1561",NA
"1562",NA
"1563",NA
"1564",NA
"1565",NA
"1566",NA
"1567",NA
"1568",NA
"1569",NA
"1570",NA
"1571",NA
"1572",NA
"1573",NA
"1574",NA
"1575",NA
"1576",NA
"1577",NA
"1578",NA
"1579",NA
"1580",NA
"1581",NA
"1582",NA
"1583",NA
"1584",NA
"1585",NA
"1586",NA
"1587",NA
"1588",NA
"1589",NA
"1590",NA
"1591",NA
"1592",NA
"1593",NA
"1594",NA
"1595",NA
"1596",NA
"1597",NA
"1598",NA
"1599",NA
"1600",NA
"1601",NA
"1602",NA
"1603",NA
"1604",NA
"1605",NA
"1606",NA
"1607",NA
"1608",NA
"1609",NA
"1610",NA
"1611",NA
"1612",NA
"1613",NA
"1614",NA
"1615",NA
"1616",NA
"1617",NA
"1618",NA
"1619",NA
"1620",NA
"1621",NA
"1622",NA
"1623",NA
"1624",NA
"1625",NA
"1626",NA
"1627",NA
"1628",NA
"1629",NA
"1630",NA
"1631",NA
"1632",NA
"1633",NA
"1634",NA
"1635",NA
"1636",NA
"1637",NA
"1638",NA
"1639",NA
"1640",NA
"1641",NA
"1642",NA
"1643",NA
"1644",NA
"1645",NA
"1646",NA
"1647",NA
"1648",NA
"1649",NA
"1650",NA
"1651",NA
"1652",NA
"1653",NA
"1654",NA
"1655",NA
"1656",NA
"1657",NA
"1658",NA
"1659",NA
"1660",NA
"1661",NA
"1662",NA
"1663",NA
"1664",NA
"1665",NA
"1666",NA
"1667",NA
"1668",NA
"1669",NA
"1670",NA
"1671",NA
"1672",NA
"1673",NA
"1674",NA
"1675",NA
"1676",NA
"1677",NA
"1678",NA
"1679",NA
"1680",NA
"1681",NA
"1682",NA
"1683",NA
"1684",NA
"1685",NA
"1686",NA
"1687",NA
"1688",NA
"1689",NA
"1690",NA
"1691",NA
"1692",NA
"1693",NA
"1694",NA
"1695",NA
"1696",NA
"1697",NA
"1698",NA
"1699",NA
"1700",NA
"1701",NA
"1702",NA
"1703",NA
"1704",NA
"1705",NA
"1706",NA
"1707",NA
"1708",NA
"1709",NA
"1710",NA
"1711",NA
"1712",NA
"1713",NA
"1714",NA
"1715",NA
"1716",NA
"1717",NA
"1718",NA
"1719",NA
"1720",NA
"1721",NA
"1722",NA
"1723",NA
"1724",NA
"1725",NA
"1726",NA
"1727",NA
"1728",NA
"1729",NA
"1730",NA
"1731",NA
"1732",NA
"1733",NA
"1734",NA
"1735",NA
"1736",NA
"1737",NA
"1738",NA
"1739",NA
"1740",NA
"1741",NA
"1742",NA
"1743",NA
"1744",NA
"1745",NA
"1746",NA
"1747",NA
"1748",NA
"1749",NA
"1750",NA
"1751",NA
"1752",NA
"1753",NA
"1754",NA
"1755",NA
"1756",NA
"1757",NA
"1758",NA
"1759",NA
"1760",NA
"1761",NA
"1762",NA
"1763",NA
"1764",NA
"1765",NA
"1766",NA
"1767",NA
"1768",NA
"1769",NA
"1770",NA
"1771",NA
"1772",NA
"1773",NA
"1774",NA
"1775",NA
"1776",NA
"1777",NA
"1778",NA
"1779",NA
"1780",NA
"1781",NA
"1782",NA
"1783",NA
"1784",NA
"1785",NA
"1786",NA
"1787",NA
"1788",NA
"1789",NA
"1790",NA
"1791",NA
"1792",NA
"1793",NA
"1794",NA
"1795",NA
"1796",NA
"1797",NA
"1798",NA
"1799",NA
"1800",NA
"1801",NA
"1802",NA
"1803",NA
"1804",NA
"1805",NA
"1806",NA
"1807",NA
"1808",NA
"1809",NA
"1810",NA
"1811",NA
"1812",NA
"1813",NA
"1814",NA
"1815",NA
"1816",NA
"1817",NA
"1818",NA
"1819",NA
"1820",NA
"1821",NA
"1822",NA
"1823",NA
"1824",NA
"1825",NA
"1826",NA
"1827",NA
"1828",NA
"1829",NA
"1830",NA
"1831",NA
"1832",NA
"1833",NA
"1834",NA
"1835",NA
"1836",NA
"1837",NA
"1838",NA
"1839",NA
"1840",NA
"1841",NA
"1842",NA
"1843",NA
"1844",NA
"1845",NA
"1846",NA
"1847",NA
"1848",NA
"1849",NA
"1850",NA
"1851",NA
"1852",NA
"1853",NA
"1854",NA
"1855",NA
"1856",NA
"1857",NA
"1858",NA
"1859",NA
"1860",NA
"1861",NA
"1862",NA
"1863",NA
"1864",NA
"1865",NA
"1866",NA
"1867",NA
"1868",NA
"1869",NA
"1870",NA
"1871",NA
"1872",NA
"1873",NA
"1874",NA
"1875",NA
"1876",NA
"1877",NA
"1878",NA
"1879",NA
"1880",NA
"1881",NA
"1882",NA
"1883",NA
"1884",NA
"1885",NA
"1886",NA
"1887",NA
"1888",NA
"1889",0
"1890",NA
"1891",NA
"1892",NA
"1893",NA
"1894",NA
"1895",3.33066907387547e-15
"1896",NA
"1897",NA
"1898",NA
"1899",NA
"1900",NA
"1901",NA
"1902",NA
"1903",NA
"1904",NA
"1905",NA
"1906",NA
"1907",NA
"1908",NA
"1909",NA
"1910",NA
"1911",NA
"1912",NA
"1913",NA
"1914",NA
"1915",NA
"1916",NA
"1917",NA
"1918",NA
"1919",NA
"1920",NA
"1921",NA
"1922",NA
"1923",NA
"1924",NA
"1925",NA
"1926",NA
"1927",NA
"1928",NA
"1929",NA
"1930",NA
"1931",NA
"1932",NA
"1933",NA
"1934",NA
"1935",NA
"1936",NA
"1937",NA
"1938",NA
"1939",NA
"1940",NA
"1941",NA
"1942",NA
"1943",NA
"1944",NA
"1945",NA
"1946",NA
"1947",NA
"1948",NA
"1949",NA
"1950",NA
"1951",NA
"1952",NA
"1953",NA
"1954",NA
"1955",NA
"1956",NA
"1957",NA
"1958",NA
"1959",NA
"1960",NA
"1961",NA
"1962",NA
"1963",NA
"1964",NA
"1965",NA
"1966",NA
"1967",NA
"1968",NA
"1969",NA
"1970",NA
"1971",NA
"1972",NA
"1973",NA
"1974",NA
"1975",NA
"1976",NA
"1977",NA
"1978",NA
"1979",NA
"1980",NA
"1981",NA
"1982",NA
"1983",NA
"1984",NA
"1985",NA
"1986",NA
"1987",NA
"1988",NA
"1989",NA
"1990",NA
"1991",NA
"1992",NA
"1993",NA
"1994",NA
"1995",NA
"1996",NA
"1997",NA
"1998",NA
"1999",NA
"2000",NA
"2001",NA
"2002",NA
"2003",NA
"2004",NA
"2005",NA
"2006",NA
"2007",NA
"2008",NA
"2009",NA
"2010",NA
"2011",NA
"2012",NA
"2013",NA
"2014",NA
"2015",NA
"2016",NA
"2017",NA
"2018",NA
"2019",NA
"2020",NA
"2021",NA
"2022",NA
"2023",NA
"2024",NA
"2025",NA
"2026",NA
"2027",NA
"2028",NA
"2029",NA
"2030",NA
"2031",NA
"2032",NA
"2033",NA
"2034",NA
"2035",NA
"2036",NA
"2037",NA
"2038",NA
"2039",NA
"2040",NA
"2041",NA
"2042",NA
"2043",NA
"2044",NA
"2045",NA
"2046",NA
"2047",NA
"2048",NA
"2049",NA
"2050",NA
"2051",NA
"2052",NA
"2053",NA
"2054",NA
"2055",NA
"2056",NA
"2057",NA
"2058",NA
"2059",NA
"2060",NA
"2061",NA
"2062",NA
"2063",NA
"2064",NA
"2065",NA
"2066",NA
"2067",NA
"2068",NA
"2069",NA
"2070",NA
"2071",NA
"2072",1
"2073",NA
"2074",NA
"2075",NA
"2076",NA
"2077",NA
"2078",NA
"2079",NA
"2080",NA
"2081",NA
"2082",NA
"2083",NA
"2084",NA
"2085",NA
"2086",NA
"2087",NA
"2088",NA
"2089",NA
"2090",NA
"2091",NA
"2092",NA
"2093",NA
"2094",NA
"2095",NA
"2096",NA
"2097",NA
"2098",NA
"2099",NA
"2100",NA
"2101",NA
"2102",NA
"2103",NA
"2104",NA
"2105",NA
"2106",NA
"2107",NA
"2108",NA
"2109",NA
"2110",NA
"2111",NA
"2112",NA
"2113",NA
"2114",NA
"2115",NA
"2116",NA
"2117",NA
"2118",NA
"2119",NA
"2120",NA
"2121",1
"2122",NA
"2123",NA
"2124",NA
"2125",NA
"2126",NA
"2127",NA
"2128",NA
"2129",NA
"2130",NA
"2131",NA
"2132",NA
"2133",NA
"2134",NA
"2135",NA
"2136",NA
"2137",NA
"2138",NA
"2139",NA
"2140",NA
"2141",NA
"2142",NA
"2143",NA
"2144",NA
"2145",NA
"2146",NA
"2147",NA
"2148",NA
"2149",0
"2150",NA
"2151",NA
"2152",NA
"2153",NA
"2154",NA
"2155",NA
"2156",NA
"2157",NA
"2158",NA
"2159",NA
"2160",NA
"2161",NA
"2162",NA
"2163",NA
"2164",NA
"2165",NA
"2166",NA
"2167",NA
"2168",NA
"2169",NA
"2170",NA
"2171",NA
"2172",NA
"2173",NA
"2174",NA
"2175",NA
"2176",NA
"2177",NA
"2178",NA
"2179",NA
"2180",NA
"2181",NA
"2182",NA
"2183",NA
"2184",NA
"2185",NA
"2186",NA
"2187",NA
"2188",NA
"2189",NA
"2190",NA
"2191",NA
"2192",NA
"2193",NA
"2194",NA
"2195",NA
"2196",NA
"2197",NA
"2198",NA
"2199",NA
"2200",NA
"2201",NA
"2202",NA
"2203",NA
"2204",NA
"2205",NA
"2206",NA
"2207",NA
"2208",NA
"2209",NA
"2210",NA
"2211",NA
"2212",NA
"2213",NA
"2214",NA
"2215",NA
"2216",NA
"2217",NA
"2218",NA
"2219",NA
"2220",NA
"2221",NA
"2222",NA
"2223",NA
"2224",NA
"2225",NA
"2226",NA
"2227",NA
"2228",NA
"2229",NA
"2230",NA
"2231",NA
"2232",NA
"2233",NA
"2234",NA
"2235",NA
"2236",NA
"2237",NA
"2238",NA
"2239",NA
"2240",NA
"2241",NA
"2242",NA
"2243",NA
"2244",NA
"2245",NA
"2246",NA
"2247",NA
"2248",NA
"2249",NA
"2250",NA
"2251",NA
"2252",NA
"2253",NA
"2254",NA
"2255",NA
"2256",NA
"2257",NA
"2258",NA
"2259",NA
"2260",NA
"2261",NA
"2262",NA
"2263",NA
"2264",NA
"2265",NA
"2266",NA
"2267",NA
"2268",NA
"2269",NA
"2270",NA
"2271",NA
"2272",NA
"2273",NA
"2274",NA
"2275",NA
"2276",NA
"2277",NA
"2278",NA
"2279",NA
"2280",NA
"2281",NA
"2282",NA
"2283",NA
"2284",NA
"2285",NA
"2286",NA
"2287",NA
"2288",NA
"2289",NA
"2290",NA
"2291",NA
"2292",NA
"2293",NA
"2294",NA
"2295",NA
"2296",NA
"2297",NA
"2298",NA
"2299",NA
"2300",NA
"2301",NA
"2302",NA
"2303",NA
"2304",NA
"2305",NA
"2306",NA
"2307",NA
"2308",NA
"2309",NA
"2310",NA
"2311",NA
"2312",NA
"2313",NA
"2314",NA
"2315",NA
"2316",NA
"2317",NA
"2318",NA
"2319",NA
"2320",NA
"2321",NA
"2322",NA
"2323",NA
"2324",NA
"2325",NA
"2326",NA
"2327",NA
"2328",NA
"2329",NA
"2330",NA
"2331",NA
"2332",NA
"2333",NA
"2334",NA
"2335",NA
"2336",NA
"2337",NA
"2338",NA
"2339",NA
"2340",NA
"2341",NA
"2342",NA
"2343",NA
"2344",NA
"2345",NA
"2346",NA
"2347",NA
"2348",NA
"2349",NA
"2350",NA
"2351",NA
"2352",NA
"2353",NA
"2354",NA
"2355",NA
"2356",NA
"2357",NA
"2358",NA
"2359",NA
"2360",NA
"2361",NA
"2362",NA
"2363",NA
"2364",NA
"2365",NA
"2366",NA
"2367",NA
"2368",NA
"2369",NA
"2370",NA
"2371",NA
"2372",NA
"2373",NA
"2374",NA
"2375",NA
"2376",NA
"2377",NA
"2378",NA
"2379",NA
"2380",NA
"2381",NA
"2382",NA
"2383",NA
"2384",NA
"2385",NA
"2386",NA
"2387",NA
"2388",NA
"2389",NA
"2390",NA
"2391",NA
"2392",NA
"2393",NA
"2394",NA
"2395",NA
"2396",NA
"2397",NA
"2398",NA
"2399",NA
"2400",NA
"2401",0
"2402",NA
"2403",NA
"2404",NA
"2405",NA
"2406",0
"2407",NA
"2408",NA
"2409",NA
"2410",NA
"2411",NA
"2412",NA
"2413",NA
"2414",NA
"2415",NA
"2416",NA
"2417",NA
"2418",NA
"2419",NA
"2420",NA
"2421",NA
"2422",NA
"2423",NA
"2424",NA
"2425",NA
"2426",NA
"2427",NA
"2428",NA
"2429",NA
"2430",NA
"2431",NA
"2432",NA
"2433",NA
"2434",NA
"2435",NA
"2436",NA
"2437",NA
"2438",NA
"2439",NA
"2440",NA
"2441",NA
"2442",NA
"2443",NA
"2444",NA
"2445",NA
"2446",NA
"2447",NA
"2448",NA
"2449",NA
"2450",NA
"2451",NA
"2452",NA
"2453",NA
"2454",NA
"2455",NA
"2456",NA
"2457",NA
"2458",NA
"2459",NA
"2460",NA
"2461",NA
"2462",NA
"2463",NA
"2464",NA
"2465",NA
"2466",NA
"2467",NA
"2468",NA
"2469",NA
"2470",NA
"2471",NA
"2472",NA
"2473",NA
"2474",NA
"2475",NA
"2476",NA
"2477",NA
"2478",NA
"2479",NA
"2480",NA
"2481",NA
"2482",NA
"2483",NA
"2484",NA
"2485",NA
"2486",NA
"2487",NA
"2488",NA
"2489",NA
"2490",NA
"2491",NA
"2492",NA
"2493",NA
"2494",NA
"2495",NA
"2496",NA
"2497",NA
"2498",NA
"2499",NA
"2500",NA
"2501",NA
"2502",NA
"2503",NA
"2504",NA
"2505",NA
"2506",NA
"2507",NA
"2508",NA
"2509",NA
"2510",NA
"2511",NA
"2512",NA
"2513",NA
"2514",NA
"2515",NA
"2516",NA
"2517",NA
"2518",NA
"2519",NA
"2520",NA
"2521",NA
"2522",NA
"2523",NA
"2524",NA
"2525",NA
"2526",NA
"2527",NA
"2528",NA
"2529",NA
"2530",NA
"2531",NA
"2532",NA
"2533",NA
"2534",NA
"2535",NA
"2536",NA
"2537",NA
"2538",NA
"2539",NA
"2540",NA
"2541",NA
"2542",NA
"2543",NA
"2544",NA
"2545",NA
"2546",NA
"2547",NA
"2548",NA
"2549",NA
"2550",NA
"2551",NA
"2552",NA
"2553",NA
"2554",NA
"2555",NA
"2556",NA
"2557",NA
"2558",NA
"2559",NA
"2560",NA
"2561",NA
"2562",NA
"2563",NA
"2564",NA
"2565",NA
"2566",NA
"2567",NA
"2568",NA
"2569",NA
"2570",NA
"2571",NA
"2572",NA
"2573",NA
"2574",NA
"2575",NA
"2576",NA
"2577",NA
"2578",NA
"2579",NA
"2580",NA
"2581",NA
"2582",NA
"2583",NA
"2584",NA
"2585",NA
"2586",NA
"2587",NA
"2588",NA
"2589",NA
"2590",NA
"2591",NA
"2592",NA
"2593",NA
"2594",NA
"2595",NA
"2596",NA
"2597",NA
"2598",NA
"2599",NA
"2600",NA
"2601",NA
"2602",NA
"2603",NA
"2604",NA
"2605",NA
"2606",NA
"2607",NA
"2608",NA
"2609",NA
"2610",NA
"2611",NA
"2612",NA
"2613",NA
"2614",NA
"2615",NA
"2616",NA
"2617",NA
"2618",NA
"2619",NA
"2620",NA
"2621",NA
"2622",NA
"2623",NA
"2624",NA
"2625",NA
"2626",NA
"2627",NA
"2628",NA
"2629",NA
"2630",NA
"2631",NA
"2632",NA
"2633",NA
"2634",NA
"2635",NA
"2636",NA
"2637",NA
"2638",NA
"2639",NA
"2640",NA
"2641",NA
"2642",NA
"2643",NA
"2644",NA
"2645",NA
"2646",NA
"2647",NA
"2648",NA
"2649",NA
"2650",NA
"2651",NA
"2652",NA
"2653",NA
"2654",NA
"2655",NA
"2656",NA
"2657",NA
"2658",NA
"2659",NA
"2660",NA
"2661",NA
"2662",NA
"2663",NA
"2664",NA
"2665",NA
"2666",0
"2667",NA
"2668",NA
"2669",NA
"2670",NA
"2671",NA
"2672",NA
"2673",NA
"2674",NA
"2675",NA
"2676",NA
"2677",NA
"2678",NA
"2679",NA
"2680",NA
"2681",NA
"2682",NA
"2683",NA
"2684",NA
"2685",NA
"2686",NA
"2687",NA
"2688",NA
"2689",0
"2690",NA
"2691",NA
"2692",NA
"2693",NA
"2694",NA
"2695",0
"2696",NA
"2697",NA
"2698",0
"2699",NA
"2700",NA
"2701",NA
"2702",NA
"2703",NA
"2704",NA
"2705",NA
"2706",NA
"2707",0
"2708",NA
"2709",NA
"2710",NA
"2711",NA
"2712",NA
"2713",NA
"2714",NA
"2715",NA
"2716",NA
"2717",NA
"2718",NA
"2719",NA
"2720",NA
"2721",NA
"2722",NA
"2723",NA
"2724",NA
"2725",NA
"2726",NA
"2727",NA
"2728",NA
"2729",NA
"2730",NA
"2731",NA
"2732",NA
"2733",NA
"2734",NA
"2735",NA
"2736",NA
"2737",NA
"2738",0
"2739",NA
"2740",NA
"2741",NA
"2742",NA
"2743",NA
"2744",NA
"2745",NA
"2746",NA
"2747",NA
"2748",NA
"2749",NA
"2750",NA
"2751",NA
"2752",NA
"2753",NA
"2754",NA
"2755",NA
"2756",NA
"2757",NA
"2758",NA
"2759",NA
"2760",NA
"2761",NA
"2762",NA
"2763",NA
"2764",NA
"2765",NA
"2766",NA
"2767",NA
"2768",NA
"2769",NA
"2770",NA
"2771",NA
"2772",NA
"2773",NA
"2774",0
"2775",NA
"2776",0
"2777",NA
"2778",NA
"2779",NA
"2780",NA
"2781",NA
"2782",NA
"2783",NA
"2784",NA
"2785",NA
"2786",NA
"2787",NA
"2788",NA
"2789",NA
"2790",NA
"2791",NA
"2792",NA
"2793",NA
"2794",NA
"2795",NA
"2796",NA
"2797",NA
"2798",NA
"2799",NA
"2800",NA
"2801",NA
"2802",NA
"2803",NA
"2804",NA
"2805",NA
"2806",NA
"2807",NA
"2808",NA
"2809",NA
"2810",NA
"2811",NA
"2812",NA
"2813",NA
"2814",NA
"2815",NA
"2816",NA
"2817",NA
"2818",NA
"2819",NA
"2820",NA
"2821",NA
"2822",NA
"2823",NA
"2824",NA
"2825",NA
"2826",NA
"2827",NA
"2828",NA
"2829",NA
"2830",NA
"2831",NA
"2832",NA
"2833",NA
"2834",NA
"2835",0
"2836",NA
"2837",NA
"2838",NA
"2839",NA
"2840",NA
"2841",NA
"2842",NA
"2843",NA
"2844",NA
"2845",NA
"2846",NA
"2847",NA
"2848",NA
"2849",NA
"2850",NA
"2851",NA
"2852",NA
"2853",NA
"2854",NA
"2855",NA
"2856",NA
"2857",NA
"2858",NA
"2859",NA
"2860",NA
"2861",NA
"2862",NA
"2863",NA
"2864",NA
"2865",NA
"2866",NA
"2867",NA
"2868",NA
"2869",0
"2870",NA
"2871",NA
"2872",NA
"2873",NA
"2874",NA
"2875",NA
"2876",NA
"2877",NA
"2878",NA
"2879",NA
"2880",NA
"2881",NA
"2882",NA
"2883",NA
"2884",NA
"2885",NA
"2886",NA
"2887",NA
"2888",NA
"2889",NA
"2890",NA
"2891",NA
"2892",NA
"2893",NA
"2894",0
"2895",NA
"2896",NA
"2897",NA
"2898",NA
"2899",NA
"2900",NA
"2901",NA
"2902",0
"2903",NA
"2904",NA
"2905",NA
"2906",NA
"2907",NA
"2908",NA
"2909",NA
"2910",NA
"2911",NA
"2912",NA
"2913",NA
"2914",NA
"2915",NA
"2916",NA
"2917",NA
"2918",NA
"2919",NA
"2920",NA
"2921",NA
"2922",NA
"2923",NA
"2924",NA
"2925",NA
"2926",NA
"2927",NA
"2928",NA
"2929",NA
"2930",NA
"2931",NA
"2932",NA
"2933",NA
"2934",NA
"2935",NA
"2936",NA
"2937",NA
"2938",NA
"2939",NA
"2940",NA
"2941",NA
"2942",NA
"2943",NA
"2944",NA
"2945",NA
"2946",NA
"2947",NA
"2948",NA
"2949",NA
"2950",NA
"2951",NA
"2952",NA
"2953",NA
"2954",NA
"2955",NA
"2956",NA
"2957",NA
"2958",NA
"2959",NA
"2960",NA
"2961",NA
"2962",NA
"2963",NA
"2964",NA
"2965",NA
"2966",NA
"2967",NA
"2968",NA
"2969",NA
"2970",NA
"2971",NA
"2972",NA
"2973",NA
"2974",NA
"2975",NA
"2976",0
"2977",NA
"2978",NA
"2979",NA
"2980",NA
"2981",NA
"2982",NA
"2983",NA
"2984",NA
"2985",NA
"2986",NA
"2987",NA
"2988",NA
"2989",NA
"2990",NA
"2991",NA
"2992",NA
"2993",NA
"2994",NA
"2995",NA
"2996",NA
"2997",NA
"2998",NA
"2999",NA
"3000",NA
"3001",NA
"3002",NA
"3003",NA
"3004",NA
"3005",NA
"3006",NA
"3007",NA
"3008",NA
"3009",NA
"3010",NA
"3011",NA
"3012",NA
"3013",NA
"3014",0
"3015",NA
"3016",NA
"3017",NA
"3018",NA
"3019",NA
"3020",NA
"3021",NA
"3022",NA
"3023",NA
"3024",NA
"3025",NA
"3026",NA
"3027",NA
"3028",NA
"3029",NA
"3030",NA
"3031",NA
"3032",NA
"3033",NA
"3034",NA
"3035",NA
"3036",NA
"3037",NA
"3038",NA
"3039",NA
"3040",NA
"3041",NA
"3042",NA
"3043",NA
"3044",NA
"3045",NA
"3046",NA
"3047",NA
"3048",NA
"3049",NA
"3050",NA
"3051",NA
"3052",NA
"3053",NA
"3054",NA
"3055",NA
"3056",NA
"3057",NA
"3058",NA
"3059",NA
"3060",NA
"3061",NA
"3062",NA
"3063",NA
"3064",NA
"3065",NA
"3066",NA
"3067",NA
"3068",NA
"3069",NA
"3070",NA
"3071",NA
"3072",NA
"3073",NA
"3074",NA
"3075",NA
"3076",NA
"3077",NA
"3078",NA
"3079",NA
"3080",NA
"3081",NA
"3082",1
"3083",NA
"3084",NA
"3085",NA
"3086",NA
"3087",NA
"3088",NA
"3089",NA
"3090",NA
"3091",NA
"3092",NA
"3093",NA
"3094",NA
"3095",NA
"3096",NA
"3097",NA
"3098",NA
"3099",NA
"3100",NA
"3101",NA
"3102",NA
"3103",NA
"3104",NA
"3105",NA
"3106",NA
"3107",NA
"3108",NA
"3109",NA
"3110",NA
"3111",NA
"3112",NA
"3113",NA
"3114",NA
"3115",NA
"3116",NA
"3117",NA
"3118",NA
"3119",NA
"3120",NA
"3121",NA
"3122",NA
"3123",NA
"3124",NA
"3125",NA
"3126",NA
"3127",NA
"3128",NA
"3129",NA
"3130",NA
"3131",NA
"3132",NA
"3133",NA
"3134",0
"3135",NA
"3136",NA
"3137",NA
"3138",NA
"3139",NA
"3140",NA
"3141",NA
"3142",NA
"3143",NA
"3144",NA
"3145",NA
"3146",NA
"3147",NA
"3148",0
"3149",NA
"3150",NA
"3151",NA
"3152",NA
"3153",NA
"3154",NA
"3155",NA
"3156",NA
"3157",NA
"3158",NA
"3159",NA
"3160",NA
"3161",NA
"3162",NA
"3163",NA
"3164",NA
"3165",NA
"3166",NA
"3167",NA
"3168",NA
"3169",NA
"3170",NA
"3171",NA
"3172",NA
"3173",NA
"3174",NA
"3175",NA
"3176",NA
"3177",NA
"3178",NA
"3179",NA
"3180",NA
"3181",NA
"3182",NA
"3183",NA
"3184",NA
"3185",NA
"3186",NA
"3187",NA
"3188",NA
"3189",NA
"3190",NA
"3191",NA
"3192",NA
"3193",NA
"3194",NA
"3195",NA
"3196",NA
"3197",NA
"3198",NA
"3199",NA
"3200",NA
"3201",NA
"3202",NA
"3203",NA
"3204",NA
"3205",NA
"3206",NA
"3207",0
"3208",NA
"3209",NA
"3210",NA
"3211",NA
"3212",NA
"3213",NA
"3214",NA
"3215",NA
"3216",NA
"3217",NA
"3218",NA
"3219",NA
"3220",NA
"3221",NA
"3222",NA
"3223",NA
"3224",NA
"3225",0
"3226",NA
"3227",NA
"3228",0
"3229",NA
"3230",NA
"3231",NA
"3232",NA
"3233",NA
"3234",NA
"3235",NA
"3236",NA
"3237",NA
"3238",NA
"3239",NA
"3240",NA
"3241",NA
"3242",NA
"3243",NA
"3244",NA
"3245",NA
"3246",NA
"3247",NA
"3248",NA
"3249",NA
"3250",NA
"3251",NA
"3252",NA
"3253",NA
"3254",NA
"3255",NA
"3256",NA
"3257",NA
"3258",NA
"3259",NA
"3260",NA
"3261",NA
"3262",NA
"3263",NA
"3264",NA
"3265",NA
"3266",NA
"3267",NA
"3268",NA
"3269",NA
"3270",NA
"3271",NA
"3272",NA
"3273",NA
"3274",NA
"3275",NA
"3276",NA
"3277",NA
"3278",NA
"3279",NA
"3280",NA
"3281",NA
