"","x"
"1",0
"2",0
"3",0.0056870804910405
"4",0
"5",0
"6",1.11022302462516e-16
"7",0.0822419926989637
"8",0
"9",0
"10",0
"11",0
"12",0
"13",7.4898587365535e-07
"14",0
"15",0
"16",0
"17",0.881842321587963
"18",6.97311985931037e-10
"19",0.718791846741403
"20",0
"21",0.258772906914667
"22",0.109719197818221
"23",2.74633780916744e-05
"24",0.725542148275142
"25",0.00215941855039714
"26",8.61946292118887e-10
"27",1.54961195489856e-05
"28",0
"29",9.17187437110556e-11
"30",0
"31",0.0172700012030357
"32",0.175904647499476
"33",0.617259442667578
"34",0.631541591614721
"35",0.00494383974092705
"36",0.000705386418747511
"37",0.163349257720422
"38",0.0945729922550606
"39",0.598206121306785
"40",0
"41",0
"42",0.0171888616071451
"43",0.000450837705455398
"44",0
"45",0.883423765088858
"46",0.138412699962605
"47",0
"48",1.07748397768503e-05
"49",0
"50",0.144981185620381
"51",0.404011971740679
"52",0.707407009142446
"53",0.0202872381308014
"54",0.319379539881828
"55",0.987576896988531
"56",0
"57",0
"58",0
"59",0
"60",0
"61",5.9827132984358e-06
"62",0
"63",0.343455481702855
"64",0.918175477105179
"65",0
"66",0
"67",0
"68",0
"69",0.525268356559403
"70",3.79376947037269e-05
"71",3.85209981945689e-06
"72",0.00126882142928209
"73",0
"74",0
"75",0.262946524109519
"76",0.0521456211398901
"77",0
"78",0.47982689098942
"79",0.391836521485288
"80",0
"81",0.293890731551079
"82",0.00386995757554842
"83",0.679696052275541
"84",0.013738913042185
"85",0.0249157994236995
"86",0.000712083687444354
"87",0
"88",0.58111893418736
"89",1.40548017668607e-10
"90",0.358536914363442
"91",6.67244037799719e-14
"92",0.935528217069629
"93",0.581222937937968
"94",0.152054826815326
"95",0.823822742864734
"96",0
"97",0.756453660450897
"98",0.054418579386777
"99",0
"100",0.374583954792536
"101",4.15223411209809e-14
"102",0.000341852028338807
"103",0.66608276467152
"104",0.123208792158752
"105",0.923597853276469
"106",0.101465146722454
"107",0.0441826359713582
"108",0
"109",0.251537088307095
"110",0.54175335717372
"111",1.76576479021806e-05
"112",0.482417504996996
"113",0
"114",0.433590127749957
"115",4.72302618237386e-07
"116",0
"117",0.933456744364484
"118",7.29300886346262e-05
"119",0.0030682925241039
"120",0.296966011584416
"121",0
"122",0.0338089622435377
"123",0.142529391034917
"124",0.000226010811076427
"125",0.0542854175999653
"126",0.119023421497624
"127",0
"128",0
"129",0
"130",0.00261681279249093
"131",0.306383631600857
"132",7.83316016272906e-07
"133",0.00062423504360376
"134",0.024882375340283
"135",0
"136",0.00140296240362425
"137",0.000141147637943706
"138",9.78958932040808e-05
"139",0.0110840857147382
"140",0
"141",0.0340006707634993
"142",0.022018584358265
"143",0.000289078892231287
"144",0.788181313868563
"145",0
"146",0
"147",0
"148",1.70830904977493e-10
"149",0.00496762453040644
"150",4.13384712016907e-08
"151",0.0521244779111304
"152",0
"153",0.013326584838365
"154",0.894377738325378
"155",0.427241868277278
"156",3.55405038732215e-10
"157",0.736202143992281
"158",0
"159",0
"160",0.140964061209013
"161",0.370379103084452
"162",0.0676779527499635
"163",0.176197386823674
"164",0.0011778204574715
"165",0.123651886884699
"166",0.250821804231432
"167",0.257707823198454
"168",0.00134533893073485
"169",0.285346762080154
"170",0.000312689503465191
"171",0.0367398482389133
"172",0.234614489307681
"173",0.156595974153123
"174",0.193416205029051
"175",0.391260145867184
"176",3.21964677141295e-15
"177",0.121444771657365
"178",2.22044604925031e-16
"179",0.104771357617617
"180",0.154354675728503
"181",0.555474992385471
"182",0.0890275427374093
"183",0.0392924648442907
"184",0.019851474965413
"185",5.60558255968679e-06
"186",9.61847832492424e-08
"187",0.190808522288645
"188",0.513154102410935
"189",0
"190",0.027781521972129
"191",0
"192",0.00641976731125871
"193",0
"194",0.215024139177221
"195",0.00918686674940195
"196",0.433763741357171
"197",0.0085137399001538
"198",0
"199",0.0717862434978858
"200",2.02393657389166e-13
"201",0.407644798770912
"202",0.00531891106957849
"203",2.43280224854203e-08
"204",0
"205",4.86300111290916e-10
"206",1.53102537314709e-08
"207",0.164652942349728
"208",0
"209",0.291562892998051
"210",1.5862268165634e-09
"211",0.0447855260328744
"212",0
"213",0
"214",0
"215",0
"216",0
"217",0
"218",0
"219",0.0658206018682715
"220",0
"221",0
"222",0
"223",0
"224",5.53557200078103e-13
"225",1.38171696306699e-11
"226",0
"227",1.22124532708767e-15
"228",0
"229",0.630626068967965
"230",0.77286042272573
"231",8.14861511599929e-10
"232",0.925048743520147
"233",0
"234",0
"235",0.00588247917377027
"236",0
"237",0
"238",0.157139714837
"239",0.124500662088606
"240",0.852606474122504
"241",0
"242",0
"243",0
"244",0
"245",0.876045432744456
"246",0.920611748796879
"247",0
"248",0.0277368447797388
"249",0.0555762767367131
"250",0.688007546463541
"251",0.792028060337045
"252",0
"253",0.519573494891335
"254",0
"255",0.0335870910379502
"256",0.851836021619897
"257",0.368978110046354
"258",0.659637854616827
"259",0
"260",0.954897740302509
"261",4.22863966065279e-11
"262",0.429498876338599
"263",0.890590881873791
"264",0.51109610410629
"265",0.967462257956471
"266",0
"267",0
"268",0.727008182095188
"269",0.140121149016258
"270",0
"271",0.351179347882325
"272",1.09846998164187e-09
"273",0.234664918624826
"274",0.174676090881723
"275",0
"276",0.244577614527089
"277",0.00195387485757426
"278",0.378781194654128
"279",0.418469805525146
"280",0.0740937559874816
"281",0.4682400552342
"282",0.678914280109769
"283",0.00856657122936089
"284",0.0508502265372793
"285",0.35525000563472
"286",0.0985932792780738
"287",0
"288",0.000129726626001525
"289",0.000336565117622145
"290",3.03712610616458e-11
"291",6.65605442349282e-05
"292",6.32827124036339e-15
"293",0.00418524873463466
"294",5.79434377434573e-05
"295",0
"296",0
"297",0
"298",0
"299",0
"300",2.3170354523927e-12
"301",0
"302",0
"303",0
"304",0
"305",0
"306",0
"307",9.99200722162641e-16
"308",0
"309",0
"310",0
"311",0.137785069195534
"312",0.377645375329427
"313",0.00840135376712436
"314",0.126536767269354
"315",0.761283005013672
"316",0.0332794469947792
"317",0.00141204597994093
"318",0
"319",0
"320",0
"321",0.00827235602804643
"322",0.0670093323668977
"323",0.0241549592302746
"324",1.77317716065772e-10
"325",0
"326",0
"327",0
"328",0.887708640575354
"329",0.597231622172527
"330",0
"331",0.345521643336259
"332",0.148976121430785
"333",0.143257823955906
"334",0.024908774755161
"335",0.675579762002208
"336",0.0295780205794075
"337",0.0120546462836592
"338",0
"339",0.801422501077942
"340",0.63849723941111
"341",0
"342",0
"343",0.00520817919847272
"344",0
"345",0.0443238210390506
"346",0.0470951205654921
"347",0
"348",0.0333376157126543
"349",0.0146228781061839
"350",0
"351",0
"352",0
"353",0
"354",0
"355",0
"356",0
"357",0
"358",0
"359",3.93161725398272e-10
"360",0
"361",0
"362",0.0058874064654022
"363",0.00568132185329517
"364",5.19992948699866e-08
"365",0.00355623575151576
"366",0
"367",3.24366433712697e-09
"368",2.51565879239024e-10
"369",7.16093850883226e-14
"370",1.38483352896124e-07
"371",1.85141569075675e-07
"372",3.33066907387547e-16
"373",0
"374",3.477020970033e-07
"375",1.8730106361331e-05
"376",6.84413945517548e-08
"377",0
"378",1.96509475358653e-14
"379",0
"380",1.69531055860261e-13
"381",0
"382",1.13242748511766e-13
"383",2.2897317375481e-10
"384",5.32907051820075e-15
"385",9.57012247226885e-14
"386",0
"387",2.1316282072803e-14
"388",0
"389",0.976532066129614
"390",4.51283455049634e-12
"391",8.58033591955021e-08
"392",0
"393",6.44900244317625e-10
"394",0
"395",2.77955436445154e-12
"396",1.40709666140992e-12
"397",2.87723844749621e-08
"398",0
"399",1.72827863131886e-10
"400",1.72063696624036e-10
"401",0
"402",3.76792300693651e-08
"403",2.65517337521004e-05
"404",0
"405",0
"406",0
"407",7.40224548323454e-11
"408",0
"409",0
"410",0.746779838793933
"411",0
"412",0
"413",0.307457325631881
"414",0.000694520385533082
"415",0
"416",0.309323398996026
"417",0
"418",0
"419",0
"420",0
"421",0.00785108251973954
"422",0
"423",0
"424",0
"425",7.7715611723761e-16
"426",0
"427",0
"428",0.734653581819388
"429",0.0578378717754034
"430",0
"431",0
"432",0
"433",0.0476491492601682
"434",1.38281608386137e-11
"435",0.00759104361006435
"436",0.00103072183567809
"437",0.148542241949328
"438",0.344052229213178
"439",0.713125518314415
"440",0
"441",0
"442",0
"443",0
"444",0
"445",0.176232767073033
"446",0.00516593778594876
"447",0
"448",0.777213261360935
"449",0.616061336261671
"450",0
"451",0.0811386335221326
"452",0.813415004990826
"453",0.823872642661263
"454",0
"455",0
"456",0
"457",0
"458",0
"459",1.29263266757107e-12
"460",0.0820477188202239
"461",0
"462",0.598931104254112
"463",0
"464",0
"465",0
"466",0
"467",0
"468",0.321605637101139
"469",0.569058323186333
"470",0.0315212366440251
"471",0
"472",0
"473",0.607338722555716
"474",0.238724145879869
"475",0.0270982163555594
"476",0
"477",0
"478",1.65667479734566e-12
"479",0
"480",2.22044604925031e-16
"481",0
"482",3.04300695752602e-10
"483",3.63823755455961e-07
"484",0
"485",0
"486",0.073215754350083
"487",0
"488",1.19414097288217e-05
"489",2.04965585060002e-07
"490",3.92685883809918e-11
"491",0.0430926996290636
"492",8.99280649946377e-15
"493",0.000192573257200901
"494",0.000113356426904132
"495",3.06235985855219e-05
"496",0
"497",3.28387628201199e-09
"498",0
"499",4.63881044687753e-10
"500",0
"501",5.47941677941921e-06
"502",0
"503",0.223133045229419
"504",1.11022302462516e-16
"505",0
"506",0
"507",0.156755743647731
"508",0
"509",0.26617864090171
"510",0
"511",4.0872015993898e-08
"512",0
"513",6.16904194394863e-09
"514",0.00473344830478861
"515",0.0123859730932154
"516",0.00260446024169514
"517",7.32834436323326e-06
"518",0.0343415597089145
"519",0
"520",2.22044604925031e-16
"521",0
"522",0
"523",0
"524",0
"525",0.00501647913374181
"526",0.0253264116230598
"527",0.418773379516003
"528",0
"529",0
"530",0
"531",0.0456363090566293
"532",0
"533",0.673592980270088
"534",0
"535",0
"536",1.91567539609139e-10
"537",0
"538",0.996173270835029
"539",0.0410791663953646
"540",0
"541",0
"542",1.72084568816899e-14
"543",2.64233079860787e-14
"544",0
"545",0
"546",0
"547",0
"548",0
"549",0
"550",5.55111512312578e-15
"551",4.95157215341102e-07
"552",0
"553",1.07188827924709e-07
"554",0
"555",0
"556",0.821219575994853
"557",0
"558",0.0855654508246245
"559",0.00064416213250218
"560",0.200006172502358
"561",0
"562",0
"563",0.922411939894721
"564",0.00441223810365698
"565",0
"566",0
"567",0.486777106306544
"568",0
"569",0
"570",0
"571",0
"572",0
"573",0
"574",0
"575",0.412854512372506
"576",0
"577",0
"578",0.0964816036211671
"579",0
"580",0
"581",0.50401887491624
"582",0.835605589531124
"583",0.831339780903839
"584",0
"585",0.0310478531368138
"586",0.993525711508376
"587",0.280804902841978
"588",0
"589",1.0809709150017e-07
"590",0.00010857968658573
"591",0.000177991461723814
"592",0.000154871955781677
"593",1.60935834788711e-05
"594",0
"595",0.000262501336462218
"596",3.26182317744728e-06
"597",0.000157446033393738
"598",0
"599",2.6346358428242e-10
"600",0.226779311528066
"601",0
"602",0
"603",0
"604",0.0104943593008141
"605",0.0442215914927818
"606",0
"607",0
"608",0.00350129607309491
"609",0.915346202528012
"610",0.888795376458573
"611",0
"612",0
"613",0.575076640662439
"614",0.881428403889472
"615",0.434145608432609
"616",0
"617",0.429799845271165
"618",0.656300037776948
"619",0
"620",0
"621",0.0173186156120753
"622",3.88189480560186e-12
"623",0.79227029825355
"624",0.549326380241791
"625",0
"626",0.115057141642355
"627",0
"628",0.193517309203373
"629",0.657440441854983
"630",0.285294724074869
"631",7.04415378471879e-07
"632",0
"633",0.128676910297781
"634",1.14037668197398e-11
"635",0
"636",0
"637",0.585321383860948
"638",0
"639",0.0204863994770782
"640",0.532714251236716
"641",0.995395158283552
"642",0
"643",0
"644",0
"645",0
"646",0.030961983868058
"647",0
"648",0.768364196623745
"649",0
"650",0.765266047505624
"651",0.0844608435485351
"652",0
"653",0
"654",0.714270530373413
"655",0.00231615108023475
"656",0.00123437503841783
"657",0
"658",0.712474889689127
"659",0
"660",0
"661",0.528162935594985
"662",0
"663",0
"664",0.0768352863621194
"665",0
"666",0.191835267257693
"667",0
"668",0.0806134238687168
"669",0.104019859391096
"670",0.187396525781557
"671",0.898687417251965
"672",0.00743693330348427
"673",0.84960734062308
"674",0
"675",0.822718033894192
"676",0.488743586836141
"677",0.89048078751878
"678",0.838800002934833
"679",0.899810393475271
"680",0
"681",0
"682",0
"683",8.49914217883052e-05
"684",0
"685",0
"686",0
"687",2.90607276089982e-05
"688",0
"689",0
"690",0
"691",0
"692",0
"693",4.22121237964035e-09
"694",7.91564988428251e-05
"695",0
"696",8.29136981295164e-10
"697",1.56279489349487e-09
"698",0.000162831658834572
"699",8.10462807976364e-15
"700",0
"701",0
"702",0.159670461786692
"703",0.136550117798564
"704",0
"705",0.198220156458801
"706",0.516115418519122
"707",0.768813296319998
"708",0.836008790937127
"709",0
"710",0
"711",0
"712",0
"713",6.99440505513849e-15
"714",0
"715",0
"716",0
"717",0
"718",0
"719",0
"720",0
"721",0
"722",0.116456270496899
"723",0
"724",0.084800775091069
"725",0.0795237115912703
"726",0.0722523528456172
"727",0
"728",0.00078228775101763
"729",0.000108798041608571
"730",4.48752146553488e-13
"731",0.00327753994971181
"732",2.55507670576804e-09
"733",1.32855726420189e-10
"734",1.11022302462516e-16
"735",0
"736",0
"737",6.67244037799719e-14
"738",0
"739",0
"740",0
"741",5.2924282155753e-05
"742",8.0056980156229e-08
"743",0
"744",0.84082173465818
"745",3.46881257552445e-05
"746",0.0749910769038258
"747",0
"748",0
"749",0.0194031956093049
"750",0.0141674966278599
"751",0
"752",0.036787213071482
"753",0.000109350341301551
"754",0.811552047260608
"755",0
"756",0.0753409037803664
"757",0
"758",1.61592961234192e-12
"759",0
"760",0
"761",1.11022302462516e-16
"762",0
"763",1.11022302462516e-16
"764",0
"765",0
"766",2.36033415035308e-13
"767",1.55431223447522e-15
"768",7.88399335815981e-08
"769",0
"770",0
"771",1.0991207943789e-14
"772",0
"773",0
"774",0
"775",2.83746914853111e-10
"776",0.000212084378310551
"777",0.187853315147756
"778",0
"779",0
"780",0
"781",0
"782",0
"783",6.47585318702681e-11
"784",0
"785",0
"786",3.52682005821947e-09
"787",0
"788",0.648570821182278
"789",1.73296843541948e-08
"790",0
"791",0.179840520677114
"792",0
"793",0
"794",0
"795",0.256670628892214
"796",0.126704951339356
"797",0.0190132498408176
"798",0.844255382904858
"799",0
"800",0
"801",0.710403082076723
"802",0
"803",0.4734123086362
"804",0.0702305730611341
"805",1.11824771664715e-10
"806",0
"807",0.0021675136228082
"808",0
"809",0
"810",2.10831514002585e-06
"811",8.12020833355076e-05
"812",0
"813",3.59251739467936e-10
"814",0.00739256405158595
"815",0
"816",0
"817",0
"818",0
"819",0
"820",0.000266834880978006
"821",0.000317374700870121
"822",2.14606442616727e-08
"823",0.0214079689937602
"824",0.00014022016574311
"825",0.000131194470165741
"826",0.0671361949513261
"827",0.0431141075146692
"828",0
"829",0
"830",2.088040296222e-09
"831",0.201542403446898
"832",1.90363979146735e-05
"833",3.09752223870419e-13
"834",0
"835",0
"836",0.000264490563992359
"837",8.88178419700125e-16
"838",0
"839",0.689836594419821
"840",0
"841",6.30606677987089e-14
"842",0
"843",2.24043006369357e-13
"844",0.000980455642978884
"845",0
"846",0
