"","x"
"1",0
"2",0
"3",5.05708808162808e-11
"4",0
"5",0
"6",0
"7",2.71597341394703e-06
"8",0
"9",0
"10",0
"11",0
"12",0
"13",8.12683254025615e-14
"14",0
"15",0
"16",0
"17",0.868485838089151
"18",0
"19",0.704356750431318
"20",0
"21",0.0374849415141559
"22",0.000761376645451506
"23",5.55111512312578e-16
"24",0.479764884592119
"25",7.96725898588591e-07
"26",0
"27",0
"28",0
"29",0
"30",0
"31",0.00101608468352898
"32",0.161543331095806
"33",0.597776479951386
"34",0.50136044113093
"35",1.6567156193914e-05
"36",3.08937830872935e-09
"37",0.093704794126668
"38",0.0149742539740478
"39",0.15879224476552
"40",0
"41",0
"42",2.99152294935823e-06
"43",0.000169773963590414
"44",0
"45",0.893149331564813
"46",0.029044314982139
"47",0
"48",4.95707196401796e-08
"49",0
"50",0.119215168444102
"51",0.319861862683452
"52",0.55813590942715
"53",0.000630905545988658
"54",0.327090061277521
"55",0.988792521463811
"56",0
"57",0
"58",0
"59",0
"60",0
"61",0
"62",0
"63",0.282159122408217
"64",0.904840699454095
"65",0
"66",0
"67",0
"68",0
"69",0.371065324357021
"70",0
"71",0
"72",7.53064644319901e-05
"73",0
"74",0
"75",0.0914141037607692
"76",0.00282384460445262
"77",0
"78",0.447773309215009
"79",0.22988133623422
"80",0
"81",0.108070759248266
"82",2.86699712642724e-05
"83",0.585300957483143
"84",0.00666026484546312
"85",0.000311329154337514
"86",6.53266329919688e-12
"87",0
"88",0.442011976542011
"89",0
"90",0.125313563380658
"91",0
"92",0.877114886325028
"93",0.529474267925533
"94",0.0582041035142742
"95",0.692213644139544
"96",0
"97",0.726158893167044
"98",0.0304623353873357
"99",0
"100",0.0841914738394292
"101",0
"102",1.89717354937002e-06
"103",0.446740795232751
"104",0.00813022781021067
"105",0.837509961163053
"106",0.00161900405818649
"107",0.0177704813069207
"108",0
"109",0.117355092326577
"110",0.255311538686408
"111",0
"112",0.0200836710787723
"113",0
"114",0.0221105858804065
"115",0
"116",0
"117",0.871295633137624
"118",6.10868022832278e-11
"119",6.6450209847857e-05
"120",0.187501607935843
"121",0
"122",5.03408625895929e-09
"123",0.0806952186469873
"124",4.50531167928148e-10
"125",0.0105577294323507
"126",0.00130202387614509
"127",0
"128",0
"129",0
"130",0.000294108581674557
"131",0.130401018356525
"132",0
"133",2.82455842159912e-07
"134",7.97097837452743e-05
"135",0
"136",2.83324608219004e-09
"137",1.8733343195465e-05
"138",1.27516239256664e-06
"139",3.7105224102274e-05
"140",0
"141",0.00898092010602258
"142",0.0157390534350859
"143",0
"144",0.679378063458892
"145",0
"146",0
"147",0
"148",0
"149",0.000211182927544629
"150",0
"151",0.00245335907863709
"152",0
"153",2.04080090298042e-05
"154",0.704807845131919
"155",0.137829369543527
"156",0
"157",0.644377192431359
"158",0
"159",0
"160",0.0381681661700239
"161",0.180155194152564
"162",0.0145920263111131
"163",0.0981016002544405
"164",1.10922329568108e-05
"165",0.0148453182131617
"166",0.0594505042978444
"167",0.000776156744714096
"168",4.61659658257396e-06
"169",0.0101049518987789
"170",0
"171",4.15777148937702e-05
"172",1.71128159420775e-08
"173",0.0400500911988502
"174",0.00642679371487864
"175",0.00202449216042411
"176",0
"177",0.0032199013755938
"178",0
"179",0.0145708858377886
"180",0.00323587075575116
"181",0.0882431751657811
"182",0.00918804989263744
"183",0.00263203840945847
"184",0.000355109766131068
"185",0
"186",0
"187",0.0172874915037695
"188",0.0807735056405051
"189",0
"190",0.000945695403800073
"191",0
"192",9.2148511043888e-15
"193",0
"194",0.010720828258285
"195",4.14483076912608e-05
"196",0.00262951884196971
"197",4.99731464720377e-06
"198",0
"199",0.0026950303960539
"200",0
"201",0.0189913818982388
"202",0
"203",0
"204",0
"205",0
"206",0
"207",0
"208",0
"209",1.4932211023222e-10
"210",0
"211",0
"212",0
"213",0
"214",0
"215",0
"216",0
"217",0
"218",0
"219",0.0494208001461187
"220",0
"221",0
"222",0
"223",0
"224",0
"225",0
"226",0
"227",0
"228",0
"229",0.53748765371187
"230",0.718354456443837
"231",0
"232",0.884331841091275
"233",0
"234",0
"235",0.000333066385387992
"236",0
"237",0
"238",0.128214407797285
"239",0.11405708152363
"240",0.741148761708792
"241",0
"242",0
"243",0
"244",0
"245",0.66931293807648
"246",0.904097169568341
"247",0
"248",0.000197730439904231
"249",0.0269489734784546
"250",0.422262941550341
"251",0.814533396133941
"252",0
"253",0.339423533694195
"254",0
"255",0.00255104043108334
"256",0.763499663878548
"257",0.291446038486608
"258",0.544939401886086
"259",0
"260",0.947720567287542
"261",0
"262",0.319510260394744
"263",0.762616333757037
"264",0.440023080344656
"265",0.615569433061677
"266",0
"267",0
"268",0.734946313358898
"269",0.007155723076821
"270",0
"271",0.266840648786056
"272",0
"273",0.164517522702206
"274",0.176636239732759
"275",0
"276",0.202963077706552
"277",0.00031885260251141
"278",0.348119690953629
"279",0.406603564955904
"280",0.0653710993301678
"281",0.162762058411703
"282",0.60020380712153
"283",0.00345680140245785
"284",0.0583525412744522
"285",0.395933622080742
"286",0.0287553846043567
"287",0
"288",0.000111260700871085
"289",0.000393595851586603
"290",0
"291",7.09900678180775e-05
"292",0
"293",0.00491411443297596
"294",4.79748306533301e-05
"295",0
"296",0
"297",0
"298",0
"299",0
"300",1.48403511701645e-12
"301",0
"302",0
"303",0
"304",0
"305",0
"306",0
"307",0
"308",0
"309",0
"310",0
"311",0.115271988269199
"312",0.0614020226778653
"313",4.44202941096705e-07
"314",0.118272596574437
"315",0.676182847499583
"316",0.00624557394135505
"317",2.67566191425317e-10
"318",0
"319",0
"320",0
"321",0
"322",6.44789112469457e-05
"323",1.67152958141514e-11
"324",0
"325",0
"326",0
"327",0
"328",0.905660552030515
"329",0.50637350209333
"330",0
"331",0.228848292107937
"332",0.138958883384774
"333",0.124450930856456
"334",0.0134292941541188
"335",0.588006725962988
"336",0.0105022904729636
"337",0.0125031461391428
"338",0
"339",0.795176666415059
"340",0.373228693116586
"341",0
"342",0
"343",1.47341736134177e-06
"344",0
"345",0.0327404361527673
"346",0.0408281440652569
"347",0
"348",0.0273779277901092
"349",3.32629525408024e-05
"350",0
"351",0
"352",0
"353",0
"354",0
"355",0
"356",0
"357",0
"358",0
"359",4.65738558830253e-13
"360",0
"361",0
"362",2.43512194849638e-05
"363",0.00119613760468251
"364",4.88498130835069e-15
"365",0.00170262391539244
"366",0
"367",4.74399075578447e-10
"368",1.64090963039598e-13
"369",1.55431223447522e-15
"370",4.28126146756469e-08
"371",1.53149677273312e-07
"372",0
"373",0
"374",8.92049177858567e-08
"375",2.67225637784474e-06
"376",6.16184880897208e-12
"377",0
"378",0
"379",0
"380",0
"381",0
"382",3.27515792264421e-14
"383",1.71473946153355e-11
"384",7.7715611723761e-16
"385",0
"386",0
"387",0
"388",0
"389",0.931461960318369
"390",0
"391",0
"392",0
"393",0
"394",0
"395",0
"396",0
"397",3.24932631912134e-08
"398",0
"399",2.2262525156691e-11
"400",1.36388678129151e-11
"401",0
"402",1.49584788999846e-11
"403",1.02666619650194e-09
"404",0
"405",0
"406",0
"407",0
"408",0
"409",0
"410",0.34714202729017
"411",0
"412",0
"413",0.27041185265044
"414",1.34225963677181e-13
"415",0
"416",0.180538572201227
"417",0
"418",0
"419",0
"420",0
"421",0.00322871169027261
"422",0
"423",0
"424",0
"425",0
"426",0
"427",0
"428",0.571733235177855
"429",0.056508577015017
"430",0
"431",0
"432",0
"433",0.0241717395414384
"434",0
"435",0.006421383010902
"436",4.61297666731753e-13
"437",0.0839453738989696
"438",0.329266135010009
"439",0.601177361959952
"440",0
"441",0
"442",0
"443",0
"444",0
"445",0.014306404058997
"446",0.000134761052326571
"447",0
"448",0.55095803039803
"449",0.396721964101474
"450",0
"451",2.26103991167736e-05
"452",0.741078954784387
"453",0.823477179809404
"454",0
"455",0
"456",0
"457",0
"458",0
"459",0
"460",0.0238541912275642
"461",0
"462",0.523001304202671
"463",0
"464",0
"465",0
"466",0
"467",0
"468",0.326397356498648
"469",0.422609895239525
"470",0.0227375374025117
"471",0
"472",0
"473",0.591040703076485
"474",0.256431631897469
"475",5.38118897153161e-06
"476",0
"477",0
"478",0
"479",0
"480",0
"481",0
"482",0
"483",0
"484",0
"485",0
"486",9.75203857001006e-07
"487",0
"488",7.27432558633723e-11
"489",0
"490",0
"491",6.18580587741224e-06
"492",0
"493",0
"494",0
"495",1.83945303433575e-10
"496",0
"497",0
"498",0
"499",0
"500",0
"501",0
"502",0
"503",0
"504",0
"505",0
"506",0
"507",0.130566094149183
"508",0
"509",0.121506670957658
"510",0
"511",3.05608871542518e-11
"512",0
"513",0
"514",3.15893612756746e-06
"515",9.22669579773716e-05
"516",7.20554307431787e-06
"517",4.65045502107131e-09
"518",0.00469977130275812
"519",0
"520",0
"521",0
"522",0
"523",0
"524",0
"525",0.00114699068512658
"526",0.0137426537804785
"527",0.329157766071153
"528",0
"529",0
"530",0
"531",0.00179341038956116
"532",0
"533",0.468445964517082
"534",0
"535",0
"536",0
"537",0
"538",0.99007168115261
"539",0.00803202259139735
"540",0
"541",0
"542",0
"543",0
"544",0
"545",0
"546",0
"547",0
"548",0
"549",0
"550",2.33146835171283e-15
"551",1.74782188722133e-10
"552",0
"553",5.02567616411653e-08
"554",0
"555",0
"556",0.729721327373267
"557",0
"558",0.00266773904004136
"559",8.82399586732419e-09
"560",0.060609140614827
"561",0
"562",0
"563",0.906281922761454
"564",0.00360513523825778
"565",0
"566",0
"567",0.425504806229724
"568",0
"569",0
"570",0
"571",0
"572",0
"573",0
"574",0
"575",0.357607302225081
"576",0
"577",0
"578",5.86873885424222e-05
"579",0
"580",0
"581",0.438289067491081
"582",0.853160907224656
"583",0.87076812769132
"584",0
"585",0.0189407155235476
"586",0.991195479484292
"587",0.139542839180092
"588",0
"589",0
"590",4.49138364166934e-07
"591",0
"592",1.92776017371443e-10
"593",5.40181677166629e-10
"594",0
"595",1.42696956473287e-08
"596",4.48842638056668e-07
"597",1.17900690921324e-06
"598",0
"599",0
"600",0.000118642399383306
"601",0
"602",0
"603",0
"604",0.00166130297552436
"605",0.0419164004963483
"606",0
"607",0
"608",1.36820762941525e-07
"609",0.915801524962291
"610",0.827997075922029
"611",0
"612",0
"613",0.554716709078646
"614",0.850918704167882
"615",0.320658628135173
"616",0
"617",0.247173034104523
"618",0.456511972955673
"619",0
"620",0
"621",0.00173261608472031
"622",0
"623",0.765675130656972
"624",0.494923187436154
"625",0
"626",2.64581096698357e-07
"627",0
"628",0.167808611789059
"629",0.543298944176547
"630",0.284620031360757
"631",0
"632",0
"633",0.101114971006078
"634",0
"635",0
"636",0
"637",0.423062877656806
"638",0
"639",0.00793132482454573
"640",0.525476614637082
"641",0.987341775748449
"642",0
"643",0
"644",0
"645",0
"646",0.0222182699938894
"647",0
"648",0.722143313278249
"649",0
"650",0.674392070463939
"651",0.0465246913506279
"652",0
"653",0
"654",0.651983335508741
"655",1.02179018579562e-08
"656",3.22240012451402e-11
"657",0
"658",0.518474443109823
"659",0
"660",0
"661",0.469583332399193
"662",0
"663",0
"664",0.0362986302640074
"665",0
"666",0.186653160975154
"667",0
"668",0.0374577103213588
"669",0.101108430203556
"670",0.0238330280154594
"671",0.835316351357344
"672",0.00411075550500539
"673",0.814584582101138
"674",0
"675",0.779209764438329
"676",0.447754135966482
"677",0.804030194832929
"678",0.781412678749513
"679",0.82811303014492
"680",0
"681",0
"682",0
"683",0
"684",0
"685",0
"686",0
"687",2.84400074601621e-08
"688",0
"689",0
"690",0
"691",0
"692",0
"693",0
"694",1.98844182675018e-06
"695",0
"696",0
"697",6.94999613415348e-14
"698",0
"699",0
"700",0
"701",0
"702",0.0739071651786508
"703",0.0950311065745126
"704",0
"705",0.219121399047302
"706",0.543915055795146
"707",0.732612461310653
"708",0.657850396590308
"709",0
"710",0
"711",0
"712",0
"713",0
"714",0
"715",0
"716",0
"717",0
"718",0
"719",0
"720",0
"721",0
"722",0.105173944452304
"723",0
"724",0.0178407502482946
"725",0.000175439622516205
"726",2.01695293799986e-08
"727",0
"728",0
"729",3.88212906266006e-10
"730",0
"731",0.000453044501290245
"732",0
"733",1.11022302462516e-16
"734",0
"735",0
"736",0
"737",0
"738",0
"739",0
"740",0
"741",0
"742",0
"743",0
"744",0.447140657136227
"745",1.28533850229928e-11
"746",0.00585049828395334
"747",0
"748",0
"749",0.0115964778030285
"750",0.00230635562189019
"751",0
"752",0.00660758100209791
"753",0
"754",0.641244251689758
"755",0
"756",1.42353936880557e-05
"757",0
"758",0
"759",0
"760",0
"761",0
"762",0
"763",0
"764",0
"765",0
"766",2.22044604925031e-16
"767",0
"768",2.09054995536917e-13
"769",0
"770",0
"771",9.32587340685131e-15
"772",0
"773",0
"774",0
"775",0
"776",0
"777",0.0936259142328764
"778",0
"779",0
"780",0
"781",0
"782",0
"783",0
"784",0
"785",0
"786",0
"787",0
"788",0.585422633962893
"789",0
"790",0
"791",0.00323150820815599
"792",0
"793",0
"794",0
"795",0.00541301447379339
"796",0.0805825269010676
"797",0.000354149061583153
"798",0.452135823324452
"799",0
"800",0
"801",0.574686631775113
"802",0
"803",0.16031508644958
"804",0.00589578072128749
"805",0
"806",0
"807",0
"808",0
"809",0
"810",0
"811",0
"812",0
"813",0
"814",6.67778101925975e-07
"815",0
"816",0
"817",0
"818",0
"819",0
"820",0
"821",0
"822",0
"823",7.81039677377748e-11
"824",4.32204663169955e-08
"825",7.14983627858601e-14
"826",1.12517761774455e-09
"827",2.88657986402541e-15
"828",0
"829",0
"830",0
"831",0.161513908112875
"832",1.06059605542441e-12
"833",0
"834",0
"835",0
"836",6.99218460908924e-13
"837",0
"838",0
"839",0.0824435661497209
"840",0
"841",0
"842",0
"843",0
"844",1.77016066045255e-05
"845",0
"846",0
