"","x"
"1",1.4880319199051e-12
"2",0.773537054017294
"3",0.051276019562193
"4",4.9960036108132e-15
"5",1.18099974244501e-11
"6",0.000148801722747005
"7",7.7715611723761e-16
"8",0.000199077564274175
"9",1.57624343577467e-07
"10",0
"11",0.247110556030423
"12",0.000449673674051021
"13",0.00339376281733783
"14",0.00530746792642323
"15",0
"16",0
"17",0
"18",0.00341030752080718
"19",0
"20",3.64677720243733e-08
"21",0.000182161191361385
"22",0.236382828045887
"23",0.0406870450910187
"24",0.02867973273917
"25",6.8446146295198e-07
"26",0.000653854229797579
"27",5.58039126574705e-07
"28",0
"29",0.0682669477148853
"30",0
"31",0
"32",9.5600664051787e-09
"33",1.76119375541184e-05
"34",0
"35",1.40228288869615e-07
"36",0
"37",0.0361349042781345
"38",1.57446719439847e-07
"39",1.7862217098763e-06
"40",0.374363251708811
"41",0
"42",0.00160310539826058
"43",0
"44",0
"45",0.000275139542249891
"46",0
"47",1.20574566937481e-05
"48",0
"49",0
"50",0
"51",0
"52",0
"53",0
"54",4.27888200482673e-06
"55",5.83200154835595e-13
"56",0
"57",2.27519639897089e-05
"58",0.025542833967466
"59",0
"60",0.00182744865301576
"61",0
"62",0
"63",0.00113930713099575
"64",0
"65",0
"66",0
"67",0.0829476531756376
"68",0.0332014833733691
"69",0
"70",0.000487111012338226
"71",0
"72",4.51944728208087e-06
"73",0
"74",1.11022302462516e-16
"75",0
"76",0
"77",9.06608121908903e-13
"78",0
"79",0
"80",0
"81",8.95008859247426e-08
"82",0
"83",4.7066126949713e-05
"84",0.010430650199762
"85",0
"86",0.0134816511498024
"87",0
"88",0.0529568725397236
"89",0
"90",0
"91",2.01781872322115e-07
"92",0
"93",0
"94",4.20421386593262e-09
"95",0
"96",0.152894700941556
"97",2.25597318603832e-13
"98",6.89448498292222e-14
"99",0
"100",0.0600909658875303
"101",0
"102",0.0035362893611105
"103",0
"104",0
"105",2.7620505882453e-10
"106",0
"107",0
"108",0.0388132144115511
"109",0
"110",5.12734420476946e-08
"111",0.65662637488785
"112",0.00165223311487306
"113",0.104495254154912
"114",4.39852445432987e-06
"115",0
"116",0
"117",0
"118",0
"119",0
"120",0.275098287848125
"121",0.20283380058935
"122",0.144278560560215
"123",0
"124",0
"125",0
"126",0.926906379232228
"127",0.0366541201591574
"128",0
"129",0.0558087934202431
"130",1.64890421538999e-07
"131",0
"132",0
"133",0
"134",0.503130065077575
"135",0
"136",0
"137",0
"138",0.00173447614386224
"139",0
"140",9.31932309100603e-11
"141",0
"142",0.0300020751205216
"143",0.419504925339993
"144",0
"145",0
"146",0
"147",0
"148",1.25718845334077e-08
"149",0
"150",0.0259229848702207
"151",0
"152",0
"153",0
"154",0
"155",0
"156",0.0304991973014135
"157",0
"158",0.61757017418154
"159",0
"160",0
"161",0
"162",0
"163",0
"164",0.00515741261932823
"165",0
"166",0.000303810354954748
"167",0.166792197524772
"168",0
"169",0.836480693057296
"170",0
"171",0
"172",5.70526959009499e-11
"173",0.268879724609763
"174",1.34115785144218e-09
"175",0
"176",0
"177",1.00440639139165e-08
"178",0.00180231011890941
"179",0
"180",0
"181",0.0924381593509852
"182",0
"183",0.00581504537926858
"184",8.54723171905825e-07
"185",0.00523341459512905
"186",0
"187",1.50913069818515e-08
"188",0.000126526019649686
"189",2.9945703849954e-06
"190",5.71209182214094e-05
"191",0
"192",1.33673072610918e-11
"193",1.00988530705726e-05
"194",0
"195",3.32957827975378e-09
"196",0.016126417024684
"197",0.0014143714053062
"198",6.93889390390723e-14
"199",0
"200",0.00496992310235589
"201",3.09721137625729e-11
"202",0
"203",0.223960271914872
"204",0
"205",2.25087545369096e-06
"206",6.06648065115678e-12
"207",1.93912602308721e-07
"208",0.0378042470309043
"209",0
"210",0.0555805513402892
"211",0.00812722845699032
"212",0.646859147086656
"213",0.0829027417294727
"214",0
"215",0
"216",4.8294146459682e-10
"217",6.10106776613994e-05
"218",0
"219",4.12755221490535e-06
"220",0
"221",1.93707938578314e-10
"222",0.00765769697015872
"223",0
"224",0.118708000338416
"225",2.01653924669642e-08
"226",0
"227",2.61559498504482e-08
"228",0.00202047063489585
"229",0
"230",0.00468030396102215
"231",0
"232",4.51935505796364e-07
"233",7.7715611723761e-16
"234",9.03321861756012e-12
"235",0.0346878479927121
"236",1.96049509959551e-10
"237",0
"238",0.000415110546717168
"239",1.62364396194548e-06
"240",0.188689657216722
"241",6.73263744728203e-05
"242",0
"243",1.3646435302328e-05
"244",0.577992163042641
"245",3.63914536616328e-07
"246",0.0314878630216291
"247",0.00148817503538667
"248",0
"249",0.00732704450667365
"250",7.3613337647771e-11
"251",0.141909796083649
"252",0.00100751200337812
"253",0
"254",0.00025179552580612
"255",0.0479158742949682
"256",0.00177508517259661
"257",0.0339934780122757
"258",3.83963878469729e-07
"259",0
"260",0.00411935566353205
"261",8.26276858045816e-08
"262",9.56936861408186e-05
"263",2.24265050974282e-14
"264",0.000383785861475472
"265",1.47595843436044e-07
"266",0
"267",9.24394283341456e-09
"268",1.11022302462516e-16
"269",3.68038932663239e-13
"270",0
"271",7.3341609452271e-09
"272",3.46498890690938e-08
"273",0.0143647676877235
"274",6.55031584528842e-15
"275",1.52542165510194e-06
"276",9.54702528144225e-09
"277",1.08868469794743e-12
"278",1.74386046681851e-05
"279",0.000520897595557845
"280",0
"281",3.2639424952019e-05
"282",0
"283",0.00146556514840845
"284",0.00141864215946708
"285",0.0023122328846118
"286",1.05049308141147e-08
"287",3.23752136210942e-12
"288",5.84742254616799e-11
"289",5.92689613498898e-07
"290",2.45348186211913e-12
"291",0.000612171909288861
"292",0.0685525385633846
"293",9.03610519742415e-13
"294",0.148262057269439
"295",6.4795335850576e-05
"296",6.71393773910012e-09
"297",2.09180714594304e-06
"298",0
"299",0
"300",0.182940421005825
"301",0.269809611997869
"302",0.000239445489858769
"303",0.00408892862088395
"304",5.6621374255883e-15
"305",5.49560397189452e-14
"306",0.920425036499657
"307",0.860816603861385
"308",0.0914394509029905
"309",0.00192835997158214
"310",0.0157761075844003
"311",9.74769986394897e-07
"312",0
"313",0
"314",0
"315",0
"316",0
"317",1.46567202818915e-11
"318",3.43998141345558e-05
"319",0.00236609466454951
"320",5.5840028951204e-05
"321",5.00696117899935e-08
"322",1.94202106174046e-07
"323",0
"324",0
"325",8.2560754899319e-09
"326",0
"327",0
"328",0.00369388656957637
"329",0
"330",0.000207399132353681
"331",0.00294814809853461
"332",0
"333",4.84030541458846e-06
"334",0.00135946290775091
"335",3.76641654897814e-06
"336",0.00535714686286881
"337",1.02221564546312e-11
"338",0
"339",0
"340",0
"341",0.0388030774711899
"342",0
"343",0.0256776263072269
"344",0
"345",3.55903346563879e-05
"346",5.23968034626954e-07
"347",0.00380495841927253
"348",0.0010482833198141
"349",2.22044604925031e-16
"350",0.00603990949604072
"351",9.92750326389569e-12
"352",0
"353",6.77236045021345e-15
"354",1.68753899743024e-14
"355",0
"356",0.0514650883192455
"357",0.0541597478430416
"358",0.0143590124823446
"359",1.11022302462516e-16
"360",0
"361",0
"362",3.27998042366495e-05
"363",0.000489715256509093
"364",0.215666949099911
"365",5.21109245688045e-06
"366",0.0456384079103056
"367",0.00197878248467986
"368",6.62435448017806e-06
"369",1.11022302462516e-16
"370",0.0279817278900056
"371",0
"372",0
"373",4.14752296348242e-05
"374",0.000386815071741098
"375",1.84868991226494e-08
"376",0.000211751419431194
"377",0.00287595344313596
"378",0
"379",0.000134839007524978
"380",1.31339383813156e-13
"381",2.44795964610134e-08
"382",0.117950582998625
"383",0.00532748779551928
"384",0.0252291334543334
"385",0
"386",0
"387",0
"388",3.78053144345358e-12
"389",3.7539743230508e-05
"390",0
"391",0
"392",0
"393",0.123734254551205
"394",0.338780947068907
"395",0.0685585160454565
"396",1.21014309684142e-14
"397",0.00968437322899218
"398",1.14942691892272e-05
"399",0.000404138372579799
"400",0
"401",1
"402",0
"403",0
"404",0
"405",0
"406",0
"407",0
"408",0
"409",0
"410",0
"411",0
"412",0
"413",0
"414",0
"415",0
"416",0
"417",0
"418",0
"419",0
"420",0
"421",0
"422",0
"423",0
"424",0
"425",0
"426",0
"427",0
"428",0
"429",0
"430",0
"431",0
"432",0
"433",0
"434",0
"435",0
"436",0
"437",0
"438",0
"439",0
"440",0
"441",0
"442",0
"443",0
"444",0
"445",0
"446",0
"447",0
"448",0
"449",0
"450",0
"451",0
"452",0
"453",0
"454",0
"455",0
"456",0
"457",0
"458",0
"459",0
"460",0
"461",0
"462",0
"463",0
"464",0
"465",0
"466",0
"467",0
"468",0
"469",0
"470",0
"471",0
"472",0
"473",0
"474",0
"475",0
"476",0
"477",0
"478",0
"479",0
"480",0
"481",0
"482",0
"483",0
"484",0
"485",0
"486",0
"487",0
"488",0
"489",0
"490",0
"491",0
"492",0
"493",0
"494",0
"495",0
"496",0
"497",0
"498",0
"499",0
"500",0
"501",0
"502",0
"503",0
"504",0
"505",0
"506",0
"507",0
"508",0
"509",0
"510",0
"511",0
"512",0
"513",0
"514",0
"515",0
"516",0
"517",0
"518",0
"519",0
"520",0
"521",0
"522",0
"523",0
"524",0
"525",0
"526",0
"527",0
"528",0
"529",0
"530",0
"531",0
"532",0
"533",0
"534",0
"535",0
"536",0
"537",0
"538",0
"539",0
"540",0
"541",0
"542",0
"543",0
"544",0
"545",0
"546",0
"547",0
"548",0
"549",0
"550",0
"551",0
"552",0
"553",0
"554",0
"555",0
"556",0
"557",0
"558",0
"559",0
"560",0
"561",0
"562",0
"563",0
"564",0
"565",0
"566",0
"567",0
"568",0
"569",0
"570",0
"571",0
"572",0
"573",0
"574",0
"575",0
"576",0
"577",0
"578",0
"579",0
"580",0
"581",0
"582",0
"583",0
"584",0
"585",0
"586",0
"587",0
"588",0
"589",0
"590",0
"591",0
"592",0
"593",0
"594",0
"595",0
"596",0
"597",0
"598",0
"599",0
"600",0
"601",0
"602",0
"603",0
"604",0
"605",0
"606",0
"607",0
"608",0
"609",0
"610",0
"611",0
"612",0
"613",0
"614",0
"615",0
"616",0
"617",0
"618",0
"619",0
"620",0
"621",0
"622",0
"623",0
"624",0
"625",0
"626",0
"627",0
"628",0
"629",0
"630",0
"631",0
"632",0
"633",0
"634",0
"635",0
"636",0
"637",0
"638",0
"639",0
"640",0
"641",0
"642",0
"643",0
"644",0
"645",0
"646",0
"647",0
"648",0
"649",0
"650",0
"651",0
"652",0
"653",0
"654",0
"655",0
"656",0
"657",0
"658",0
"659",0
"660",0
"661",0
"662",0
"663",0
"664",0
"665",0
"666",0
"667",0
"668",0
"669",0
"670",0
"671",0
"672",0
"673",0
"674",0
"675",0
"676",0
"677",0
"678",0
"679",0
"680",0
"681",0
"682",0
"683",0
"684",0
"685",0
"686",0
"687",0
"688",0
"689",0
"690",0
"691",0
"692",0
"693",0
"694",0
"695",0
"696",0
"697",0
"698",0
"699",0
"700",0
"701",0
"702",0
"703",0
"704",0
"705",0
"706",0
"707",0
"708",0
"709",0
"710",0
"711",0
"712",0
"713",0
"714",0
"715",0
"716",0
"717",0
"718",0
"719",0
"720",0
"721",0
"722",0
"723",0
"724",0
"725",0
"726",0
"727",0
"728",0
"729",0
"730",0
"731",0
"732",0
"733",0
"734",0
"735",0
"736",0
"737",0
"738",0
"739",0
"740",0
"741",0
"742",0
"743",0
"744",0
"745",0
"746",0
"747",0
"748",0
"749",0
"750",0
"751",0
"752",0
"753",0
"754",0
"755",0
"756",0
"757",0
"758",0
"759",0
"760",0
"761",0
"762",0
"763",0
"764",0
"765",0
"766",0
"767",0
"768",0
"769",0
"770",0
"771",0
"772",0
"773",0
"774",0
"775",0
"776",0
"777",0
"778",0
"779",0
"780",0
"781",0
"782",0
"783",0
"784",0
"785",0
"786",0
"787",0
"788",0
"789",0
"790",0
"791",0
"792",0
"793",0
"794",0
"795",0
"796",0
"797",0
"798",0
"799",0
"800",0
"801",0
"802",0
"803",0
"804",0
"805",0
"806",0
"807",0
"808",0
"809",0
"810",0
"811",0
"812",0
"813",0
"814",0
"815",0
"816",0
"817",0
"818",0
"819",0
"820",0
"821",0
"822",0
"823",0
"824",0
"825",0
"826",0
"827",0
"828",0
"829",0
"830",0
"831",0
"832",0
"833",0
"834",0
"835",0
"836",0
"837",0
"838",0
"839",0
"840",0
"841",0
"842",0
"843",0
"844",0
"845",0
"846",0
"847",0
"848",0
"849",0
"850",0
"851",0
"852",0
"853",0
"854",0
"855",0
"856",0
"857",0
"858",0
"859",0
"860",0
"861",0
"862",0
"863",0
"864",0
"865",0
"866",0
"867",0
"868",0
"869",0
"870",0
"871",0
"872",0
"873",0
"874",0
"875",0
"876",0
"877",0
"878",0
"879",0
"880",0
"881",0
"882",0
"883",0
"884",0
"885",0
"886",0
"887",0
"888",0
"889",0
"890",0
"891",0
"892",0
"893",0
"894",0
"895",0
"896",0
"897",0
"898",0
"899",0
"900",0
"901",0
"902",0
"903",0
"904",0
"905",0
"906",0
"907",0
