"","x"
"1",0
"2",0
"3",0
"4",0
"5",0
"6",0
"7",0
"8",0
"9",0
"10",0
"11",0.000112400183909345
"12",5.45929281893232e-05
"13",0
"14",2.15707173456536e-07
"15",0
"16",0
"17",0
"18",0
"19",0
"20",0
"21",0
"22",0.0314755102919068
"23",0
"24",2.42420195029069e-10
"25",0
"26",0
"27",0
"28",0
"29",2.6113000650696e-11
"30",0
"31",0
"32",0
"33",0
"34",0
"35",0
"36",0
"37",0.00467625137374805
"38",0
"39",0
"40",0.0129237267505578
"41",0
"42",3.21964677141295e-15
"43",0
"44",0
"45",0
"46",0
"47",1.51878509768721e-13
"48",0
"49",0
"50",0
"51",0
"52",0
"53",0
"54",0
"55",0
"56",0
"57",2.75335310107039e-14
"58",0.0124751795418514
"59",0
"60",0
"61",0
"62",0
"63",9.43689570931383e-15
"64",0
"65",0
"66",0
"67",0.0559526093316008
"68",0.00199310211479209
"69",0
"70",0.000230701367546438
"71",0
"72",0
"73",0
"74",0
"75",0
"76",0
"77",0
"78",0
"79",0
"80",0
"81",1.00485793574911e-07
"82",0
"83",3.35500282000467e-08
"84",3.86893260762022e-08
"85",0
"86",0.000505306747534684
"87",0
"88",0.0323319178060482
"89",0
"90",0
"91",0
"92",0
"93",0
"94",4.44089209850063e-16
"95",0
"96",0.0160993093317222
"97",0
"98",0
"99",0
"100",0.00511677019013845
"101",0
"102",1.5325128943644e-09
"103",0
"104",0
"105",0
"106",0
"107",0
"108",0.0239649184677068
"109",0
"110",0
"111",0.524748197557381
"112",6.0319195194225e-09
"113",4.81735972902575e-05
"114",1.17017506795491e-13
"115",0
"116",0
"117",0
"118",0
"119",0
"120",0.0146650834873291
"121",0.00618236880653289
"122",0.0174387007068952
"123",0
"124",0
"125",0
"126",0.895819713247754
"127",8.82004469460185e-10
"128",0
"129",1.34656698014268e-08
"130",0
"131",0
"132",0
"133",0
"134",0.366071695255392
"135",0
"136",0
"137",0
"138",1.22683752046271e-10
"139",0
"140",0
"141",0
"142",2.1070944952184e-06
"143",0.349531687095856
"144",0
"145",0
"146",0
"147",0
"148",0
"149",0
"150",3.51142973186169e-05
"151",0
"152",0
"153",0
"154",0
"155",0
"156",1.39145794882944e-05
"157",0
"158",0.459121650700687
"159",0
"160",0
"161",0
"162",0
"163",0
"164",0.00223192289620366
"165",0
"166",3.33066907387547e-16
"167",0.00147397716028719
"168",0
"169",0.766633657947609
"170",0
"171",0
"172",0
"173",0.102747998320283
"174",0
"175",0
"176",0
"177",0
"178",5.59330359806154e-12
"179",0
"180",0
"181",0.0177353162902906
"182",0
"183",0.00356624447702658
"184",1.79378734088687e-12
"185",0.00176542564960169
"186",0
"187",7.7715611723761e-16
"188",1.41465846421607e-05
"189",2.47912801398797e-13
"190",2.38370422955825e-07
"191",0
"192",0
"193",7.41401915416162e-07
"194",0
"195",5.10702591327572e-15
"196",0.00199028411665036
"197",0.000131199055789066
"198",0
"199",0
"200",0.00288379401575156
"201",0
"202",0
"203",0.106719784866016
"204",0
"205",0
"206",0
"207",0
"208",0.0215986111405461
"209",0
"210",0.0135477629105492
"211",3.2115150673917e-05
"212",0.59213926782876
"213",8.51000780177635e-07
"214",0
"215",0
"216",7.48212602985632e-12
"217",9.25632981374491e-09
"218",0
"219",1.47562850827399e-10
"220",0
"221",0
"222",8.26449746416102e-08
"223",0
"224",0.0539150645535602
"225",0
"226",0
"227",0
"228",7.11991576807236e-11
"229",0
"230",5.35413779978455e-09
"231",0
"232",0
"233",0
"234",4.17443857259059e-14
"235",2.06233472941353e-05
"236",0
"237",0
"238",1.36600986744284e-07
"239",0
"240",0.115850019758051
"241",6.65615477180026e-08
"242",0
"243",0
"244",0.0958727523261252
"245",1.7831758292175e-10
"246",2.6700863742235e-13
"247",0
"248",0
"249",0
"250",0
"251",0.0359853850378349
"252",2.39687553057477e-05
"253",0
"254",2.77301875017955e-07
"255",0
"256",3.10862446895044e-15
"257",3.26128417242888e-05
"258",0
"259",0
"260",2.04058991926104e-12
"261",1.82351845845474e-08
"262",2.08334397563403e-05
"263",1.33226762955019e-15
"264",8.1495380645058e-05
"265",3.731182030009e-11
"266",0
"267",0
"268",0
"269",1.93178806284777e-14
"270",0
"271",5.0451864908041e-12
"272",5.71458325104857e-10
"273",0.00650721850548308
"274",0
"275",6.20088201896962e-08
"276",3.33066907387547e-16
"277",0
"278",5.07691752038575e-06
"279",0.000453002589327234
"280",0
"281",4.75342582173521e-06
"282",0
"283",1.90958360235527e-14
"284",1.01710324718063e-07
"285",2.64994995501366e-05
"286",0
"287",0
"288",2.22044604925031e-16
"289",3.40244343810525e-09
"290",2.91988655476416e-14
"291",1.17124336895813e-08
"292",0.0230168882029732
"293",0
"294",0.00031349889499066
"295",1.0709242048712e-08
"296",0
"297",0
"298",0
"299",0
"300",0.000723700379537173
"301",0.0374064218443639
"302",0
"303",0
"304",0
"305",0
"306",0.893752051204158
"307",0.0075510306675507
"308",0.0147351653872329
"309",7.64721619361808e-13
"310",0
"311",0
"312",0
"313",0
"314",0
"315",0
"316",0
"317",0
"318",3.38485479089989e-06
"319",1.1172481436672e-06
"320",2.12423763135128e-07
"321",0
"322",0
"323",0
"324",0
"325",0
"326",0
"327",0
"328",2.5269464298816e-10
"329",0
"330",2.77582734575788e-10
"331",3.5041525237034e-11
"332",0
"333",5.40900657597376e-13
"334",0
"335",7.01247383161352e-07
"336",1.83656667651633e-09
"337",0
"338",0
"339",0
"340",0
"341",2.10124138833034e-06
"342",0
"343",0.00608317739532016
"344",0
"345",2.04880556964326e-12
"346",7.00225655236864e-10
"347",0.00159545565690822
"348",0
"349",0
"350",0.000755637508785378
"351",0
"352",0
"353",0
"354",0
"355",0
"356",1.1460387210116e-05
"357",0.0285179939000049
"358",3.98799548939621e-10
"359",0
"360",0
"361",0
"362",0
"363",8.20171954796223e-08
"364",3.12375680877608e-11
"365",0
"366",0
"367",1.45340937951488e-07
"368",0
"369",0
"370",3.22873201274998e-06
"371",0
"372",0
"373",6.83675338564171e-13
"374",7.89554300717477e-07
"375",0
"376",0
"377",1.15167875236466e-10
"378",0
"379",3.94084764820946e-11
"380",0
"381",0
"382",1.52872876912902e-07
"383",0
"384",3.95601642777521e-07
"385",0
"386",0
"387",0
"388",0
"389",1.84009598114265e-07
"390",0
"391",0
"392",0
"393",0.00127257091042221
"394",0.147666606698093
"395",0.000377571111327302
"396",0
"397",0.00344314350731656
"398",6.70332206409441e-08
"399",1.18013151473306e-08
"400",0
"401",0
"402",0
"403",0
"404",0
"405",0
"406",0
"407",0
"408",0
"409",0
"410",0
"411",0
"412",0
"413",0
"414",0
"415",0
"416",0
"417",0
"418",0
"419",0
"420",0
"421",0
"422",0
"423",0
"424",0
"425",0
"426",0
"427",0
"428",0
"429",0
"430",0
"431",0
"432",0
"433",0
"434",0
"435",0
"436",0
"437",0
"438",0
"439",0
"440",0
"441",0
"442",0
"443",0
"444",0
"445",0
"446",0
"447",0
"448",0
"449",0
"450",0
"451",0
"452",0
"453",0
"454",0
"455",0
"456",0
"457",0
"458",0
"459",0
"460",0
"461",0
"462",0
"463",0
"464",0
"465",0
"466",0
"467",0
"468",0
"469",0
"470",0
"471",0
"472",0
"473",0
"474",0
"475",0
"476",0
"477",0
"478",0
"479",0
"480",0
"481",0
"482",0
"483",0
"484",0
"485",0
"486",0
"487",0
"488",0
"489",0
"490",0
"491",0
"492",0
"493",0
"494",0
"495",0
"496",0
"497",0
"498",0
"499",0
"500",0
"501",0
"502",0
"503",0
"504",0
"505",0
"506",0
"507",0
"508",0
"509",0
"510",0
"511",0
"512",0
"513",0
"514",0
"515",0
"516",0
"517",0
"518",0
"519",0
"520",0
"521",0
"522",0
"523",0
"524",0
"525",0
"526",0
"527",0
"528",0
"529",0
"530",0
"531",0
"532",0
"533",0
"534",0
"535",0
"536",0
"537",0
"538",0
"539",0
"540",0
"541",0
"542",0
"543",0
"544",0
"545",0
"546",0
"547",0
"548",0
"549",0
"550",0
"551",0
"552",0
"553",0
"554",0
"555",0
"556",0
"557",0
"558",0
"559",0
"560",0
"561",0
"562",0
"563",0
"564",0
"565",0
"566",0
"567",0
"568",0
"569",0
"570",0
"571",0
"572",0
"573",0
"574",0
"575",0
"576",0
"577",0
"578",0
"579",0
"580",0
"581",0
"582",0
"583",0
"584",0
"585",0
"586",0
"587",0
"588",0
"589",0
"590",0
"591",0
"592",0
"593",0
"594",0
"595",0
"596",0
"597",0
"598",0
"599",0
"600",0
"601",0
"602",0
"603",0
"604",0
"605",0
"606",0
"607",0
"608",0
"609",0
"610",0
"611",0
"612",0
"613",0
"614",0
"615",0
"616",0
"617",0
"618",0
"619",0
"620",0
"621",0
"622",0
"623",0
"624",0
"625",0
"626",0
"627",0
"628",0
"629",0
"630",0
"631",0
"632",0
"633",0
"634",0
"635",0
"636",0
"637",0
"638",0
"639",0
"640",0
"641",0
"642",0
"643",0
"644",0
"645",0
"646",0
"647",0
"648",0
"649",0
"650",0
"651",0
"652",0
"653",0
"654",0
"655",0
"656",0
"657",0
"658",0
"659",0
"660",0
"661",0
"662",0
"663",0
"664",0
"665",0
"666",0
"667",0
"668",0
"669",0
"670",0
"671",0
"672",0
"673",0
"674",0
"675",0
"676",0
"677",0
"678",0
"679",0
"680",0
"681",0
"682",0
"683",0
"684",0
"685",0
"686",0
"687",0
"688",0
"689",0
"690",0
"691",0
"692",0
"693",0
"694",0
"695",0
"696",0
"697",0
"698",0
"699",0
"700",0
"701",0
"702",0
"703",0
"704",0
"705",0
"706",0
"707",0
"708",0
"709",0
"710",0
"711",0
"712",0
"713",0
"714",0
"715",0
"716",0
"717",0
"718",0
"719",0
"720",0
"721",0
"722",0
"723",0
"724",0
"725",0
"726",0
"727",0
"728",0
"729",0
"730",0
"731",0
"732",0
"733",0
"734",0
"735",0
"736",0
"737",0
"738",0
"739",0
"740",0
"741",0
"742",0
"743",0
"744",0
"745",0
"746",0
"747",0
"748",0
"749",0
"750",0
"751",0
"752",0
"753",0
"754",0
"755",0
"756",0
"757",0
"758",0
"759",0
"760",0
"761",0
"762",0
"763",0
"764",0
"765",0
"766",0
"767",0
"768",0
"769",0
"770",0
"771",0
"772",0
"773",0
"774",0
"775",0
"776",0
"777",0
"778",0
"779",0
"780",0
"781",0
"782",0
"783",0
"784",0
"785",0
"786",0
"787",0
"788",0
"789",0
"790",0
"791",0
"792",0
"793",0
"794",0
"795",0
"796",0
"797",0
"798",0
"799",0
"800",0
"801",0
"802",0
"803",0
"804",0
"805",0
"806",0
"807",0
"808",0
"809",0
"810",0
"811",0
"812",0
"813",0
"814",0
"815",0
"816",0
"817",0
"818",0
"819",0
"820",0
"821",0
"822",0
"823",0
"824",0
"825",0
"826",0
"827",0
"828",0
"829",0
"830",0
"831",0
"832",0
"833",0
"834",0
"835",0
"836",0
"837",0
"838",0
"839",0
"840",0
"841",0
"842",0
"843",0
"844",0
"845",0
"846",0
"847",0
"848",0
"849",0
"850",0
"851",0
"852",0
"853",0
"854",0
"855",0
"856",0
"857",0
"858",0
"859",0
"860",0
"861",0
"862",0
"863",0
"864",0
"865",0
"866",0
"867",0
"868",0
"869",0
"870",0
"871",0
"872",0
"873",0
"874",0
"875",0
"876",0
"877",0
"878",0
"879",0
"880",0
"881",0
"882",0
"883",0
"884",0
"885",0
"886",0
"887",0
"888",0
"889",0
"890",0
"891",0
"892",0
"893",0
"894",0
"895",0
"896",0
"897",0
"898",0
"899",0
"900",0
"901",0
"902",0
"903",0
"904",0
"905",0
"906",0
"907",0
