"","x"
"1",0
"2",1.11022302462516e-16
"3",0.00204264033863755
"4",3.97510913074939e-11
"5",0.13208236978058
"6",0.00021904697385311
"7",0
"8",0.00313063975687955
"9",0.00145606794723818
"10",0
"11",0
"12",0
"13",0
"14",0
"15",0
"16",0
"17",0
"18",0
"19",0
"20",4.10782519111308e-15
"21",0
"22",0.00501273501531596
"23",0.0168336466693638
"24",0.00394292152330877
"25",0.0603627846217274
"26",2.305917076173e-07
"27",1.25335351200961e-05
"28",0
"29",0.00367588835452837
"30",0
"31",5.09336387510828e-08
"32",0
"33",4.46067484061174e-08
"34",0.00302791299690153
"35",8.13168321567304e-09
"36",0.00179709052262689
"37",2.5391910796202e-12
"38",0.0985914386317769
"39",0.0259087519210088
"40",0
"41",0.000214972077513753
"42",0.844989348469191
"43",1.17683640610267e-14
"44",0
"45",0
"46",0
"47",0
"48",0
"49",0.00262914235284251
"50",1.58586366261204e-10
"51",9.86977166661518e-12
"52",0
"53",0
"54",0
"55",0
"56",0
"57",0.00266828261446739
"58",0
"59",0
"60",0
"61",0
"62",0
"63",0
"64",0
"65",0
"66",0
"67",0
"68",0
"69",0
"70",0
"71",0
"72",0
"73",0
"74",1.52766688188422e-13
"75",0.000185776441213981
"76",0
"77",0
"78",6.01556690926763e-06
"79",2.05288142862692e-06
"80",0
"81",0
"82",9.25148846420143e-13
"83",2.31104126069415e-06
"84",1.27579980522263e-05
"85",0
"86",0
"87",0
"88",0
"89",0
"90",0.126589048115863
"91",0
"92",0
"93",0
"94",0
"95",0.0425314678671304
"96",4.23442309348543e-05
"97",2.33146835171283e-15
"98",0
"99",0.0679018599585213
"100",0
"101",0
"102",0
"103",0
"104",0.00417454330289246
"105",5.49182810338777e-10
"106",5.37547784063008e-12
"107",0.000259241206092886
"108",9.47655443006568e-08
"109",0.000563340972396631
"110",0
"111",0.010053184275128
"112",0
"113",0
"114",0
"115",0
"116",1.71849956487335e-09
"117",0
"118",0
"119",0
"120",0
"121",0
"122",0
"123",0
"124",0
"125",0
"126",1.13010940050451e-07
"127",0
"128",0
"129",0.450336893556466
"130",2.63114392495822e-08
"131",0
"132",1.50917429712072e-05
"133",4.17939015451285e-06
"134",0
"135",0
"136",0
"137",8.4252160803544e-11
"138",1.11022302462516e-16
"139",4.52807580320069e-09
"140",0
"141",9.54791801177635e-14
"142",3.78703861445562e-05
"143",9.64300834738196e-08
"144",0
"145",8.78492834033295e-11
"146",1.00940367175895e-10
"147",0
"148",0
"149",2.46680587068226e-09
"150",0
"151",5.38991073995021e-11
"152",0
"153",0.00183460318445117
"154",0
"155",2.06833439264642e-11
"156",1.91862082574712e-05
"157",2.41845876658431e-10
"158",0.000111483041932425
"159",0
"160",0
"161",0
"162",0
"163",2.74052536219926e-09
"164",1.5888359916616e-07
"165",0
"166",8.07200140062747e-09
"167",1.3274936705443e-12
"168",3.8238856525652e-11
"169",0
"170",0.00164720718618039
"171",0
"172",4.70358621940115e-06
"173",0.00364374544552792
"174",0.000420676709643186
"175",0
"176",1.64141048530908e-08
"177",6.45039577307216e-14
"178",3.6528947532366e-06
"179",0
"180",5.39789812847857e-08
"181",0.723828299705424
"182",1.74883706405282e-08
"183",1.25832116670832e-06
"184",0.0329593976566733
"185",2.2154760010995e-06
"186",3.33066907387547e-16
"187",0.25535169805717
"188",0
"189",0
"190",5.10591569025109e-13
"191",0.0384981581384811
"192",7.29407231492285e-06
"193",0
"194",0.000895686417978769
"195",3.5081658772862e-05
"196",0
"197",0
"198",1.11022302462516e-15
"199",0.00456838571523199
"200",0
"201",1.81002091093063e-08
"202",0
"203",1.66042934957034e-08
"204",7.79565301201046e-11
"205",0
"206",0
"207",0
"208",2.76293673495687e-08
"209",0
"210",2.55773655637448e-05
"211",0
"212",0
"213",0
"214",1.57276813794738e-09
"215",0
"216",3.2014793283075e-07
"217",0
"218",0
"219",0
"220",0
"221",0
"222",0
"223",0
"224",0
"225",0
"226",0
"227",0
"228",0
"229",0
"230",0
"231",7.7715611723761e-16
"232",0.0346964273558258
"233",0
"234",0
"235",0
"236",0
"237",0
"238",0
"239",4.35837611423295e-05
"240",0
"241",0.000691052056254415
"242",3.16151952994836e-06
"243",1.68642988462864e-10
"244",0.0167609942776307
"245",0.000110535000929168
"246",0.115935776675194
"247",0.0553559020498164
"248",0.00176965268222729
"249",0.0288796816006626
"250",0.0966528754816042
"251",0
"252",5.39727516973842e-05
"253",4.82334587426081e-05
"254",0.00898976647588901
"255",1.64417501835601e-09
"256",0
"257",0.00100995949957094
"258",5.03463737366872e-09
"259",0.000233690775353845
"260",0
"261",0
"262",0
"263",0
"264",0.190952559100306
"265",0.000516377993343919
"266",0.267923190868508
"267",0.0110090837282482
"268",0
"269",0.0291987435716409
"270",0.00855799562936987
"271",0.00885534466525695
"272",0.0433018522413933
"273",0.399871387372625
"274",0
"275",0
"276",0.0217542288573025
"277",3.30096909029187e-07
"278",0
"279",0.0259309227003351
"280",0
"281",0.398994517962145
"282",0
"283",0
"284",0.0296814959713181
"285",0
"286",0.000143606875915081
"287",0.106536334882245
"288",0.000234182573427333
"289",0.0107683936856169
"290",7.34397903490169e-07
"291",0
"292",0.0110215846781447
"293",0
"294",0
"295",0
"296",0.846892829737885
"297",0.00116707763858426
"298",0
"299",0.0158057298549127
"300",2.6153265975104e-07
"301",0
"302",0
"303",0.0124396195216465
"304",0.66586385952561
"305",0
"306",0
"307",0
"308",0.0579410657070445
"309",1.66165422644804e-05
"310",0
"311",0.00645021803477519
"312",0
"313",1.03127284489801e-10
"314",1.0627238794636e-05
"315",0.00669917100256334
"316",0.0310901331380837
"317",6.49209797032313e-10
"318",0.0049558126260576
"319",0.000369252933099196
"320",6.08810525326575e-07
"321",0
"322",0.00131633120866625
"323",0
"324",7.2864019975416e-06
"325",0
"326",9.7311048108395e-13
"327",0
"328",0
"329",0
"330",0
"331",0
"332",0
"333",0
"334",0
"335",0
"336",4.48596715330041e-12
"337",0
"338",0
"339",0
"340",0
"341",0
"342",0
"343",0
"344",0
"345",0
"346",0
"347",0
"348",0
"349",0
"350",0
"351",0
"352",0
"353",3.14464905781797e-07
"354",0
"355",0
"356",0
"357",0
"358",0
"359",0
"360",0
"361",0.148781120555943
"362",0
"363",0.0595303859250285
"364",0.0894290578251896
"365",0.88798521701111
"366",0.31759524675974
"367",0.0796855753646608
"368",0.155131093746784
"369",0.000923390646049405
"370",0
"371",0
"372",0
"373",0.0768852610325105
"374",0.489983173336784
"375",0
"376",0
"377",0
"378",0
"379",0
"380",0
"381",0
"382",0
"383",0
"384",0
"385",1.0501658797013e-06
"386",6.48888679444237e-06
"387",9.30366894635881e-12
"388",0
"389",0
"390",0
"391",2.56299799161752e-08
"392",0.00515725433542202
"393",0
"394",0.0106906067793174
"395",4.65399163651625e-10
"396",3.5524807214693e-05
"397",0
"398",3.74103418343541e-05
"399",0.00230420944861598
"400",0
"401",0
"402",0.420027320023366
"403",0
"404",0
"405",0.689565277883371
"406",0
"407",0.262616210366063
"408",0
"409",0
"410",0
"411",0
"412",0
"413",0
"414",0
"415",0
"416",0
"417",0
"418",0
"419",0
"420",0
"421",0
"422",0
"423",0
"424",0
"425",7.09055036907102e-12
"426",0
"427",0
"428",0
"429",0.0250231260483027
"430",0.0460209253333173
"431",0
"432",0
"433",0
"434",0
"435",0
"436",0
"437",0
"438",0
"439",0
"440",1.93121054005152e-05
"441",0
"442",0
"443",0
"444",0
"445",0
"446",0
"447",0
"448",0
"449",0
"450",0
"451",0
"452",0
"453",3.33066907387547e-16
"454",0
"455",0
"456",0
"457",0
"458",0
"459",0
"460",9.2274234697598e-08
"461",0
"462",0
"463",0
"464",0
"465",0
"466",4.55505231184983e-05
"467",0.00457307811629015
"468",0.526071517078131
"469",0
"470",0
"471",0
"472",7.83219988864658e-09
"473",0
"474",0
"475",0
"476",0
"477",0
"478",0
"479",0
"480",0
"481",0
"482",0
"483",0
"484",0
"485",0
"486",0
"487",0
"488",0
"489",0
"490",0
"491",0
"492",0
"493",0
"494",0
"495",0
"496",0
"497",0
"498",0
"499",0
"500",0
"501",0
"502",0
"503",0
"504",0
"505",0
"506",0
"507",0
"508",0
"509",0
"510",0
"511",0
"512",0
"513",0
"514",0
"515",0
"516",0
"517",0
"518",0
"519",0
"520",0
"521",0
"522",0
"523",0
"524",0
"525",0
"526",0
"527",0
"528",0
"529",0
"530",0
"531",0
"532",0
"533",0
"534",0
"535",0
"536",0
"537",0.870395373467702
"538",0
"539",2.02948768901479e-13
"540",0.000195913095034306
"541",2.56017429478561e-13
"542",0.0326697956043321
"543",0
"544",2.35165686923722e-09
"545",0.0655638282555393
"546",1.32233334801946e-05
"547",0
"548",1.11022302462516e-15
"549",8.43675574624392e-07
"550",0.00927684854011834
"551",9.49802458904969e-11
"552",0.0450420139470978
"553",0
"554",1.93667304415612e-12
"555",0.00165248823561071
"556",0.00838872983584205
"557",0
"558",0
"559",1.28617071437631e-08
"560",0.304460943083185
"561",0
"562",1.02168810078851e-07
"563",0.607867467821494
"564",0
"565",0
"566",0
"567",0
"568",0.781953365467677
"569",0
"570",0
"571",0
"572",0.00027454542516081
"573",0
"574",0
"575",0
"576",0
"577",0
"578",1.97484140151971e-10
"579",0
"580",0.0119807908818858
"581",0
"582",0
"583",0
"584",0
"585",0
"586",0.000880374611485601
"587",0
"588",0
"589",0
"590",0
"591",0
"592",0
"593",5.73985303731206e-14
"594",3.52762826083541e-06
"595",3.15744465795298e-07
"596",0
"597",0
"598",4.16993861662718e-09
"599",0.0186340662476572
"600",0
"601",0.005261181822654
"602",0
"603",0.0631731850263434
"604",0.0465924608311379
"605",0
"606",3.64005443564963e-07
"607",0
"608",0
"609",0.0387847223788905
"610",0.0550136128469509
"611",0.109830073069469
"612",0
"613",0
"614",0.086213605103047
"615",0
"616",0
"617",0
"618",1.4432899320127e-15
"619",0.015924411579989
"620",0.43910132275696
"621",0.00390116824531006
"622",0
"623",0
"624",0.115272525337546
"625",0.0494586394114772
"626",0.0017169891998704
"627",0.00263113119176717
"628",0.0159183004494581
"629",0
"630",0
"631",1.50381814778555e-07
"632",0
"633",0
"634",0
"635",1.20425114324973e-10
"636",1.33226762955019e-15
"637",1.81842207958027e-10
"638",8.65973959207622e-15
"639",2.17619795073176e-07
"640",0.237885624011903
"641",0
"642",0
"643",4.56372237574998e-05
"644",0.101294325025484
"645",0
"646",0
"647",2.9091851150298e-10
"648",0
"649",0
"650",0
"651",0
"652",0
"653",0
"654",0
"655",0
"656",0
"657",0
"658",0.151602062466582
"659",7.59952460893665e-06
"660",0
"661",0
"662",0
"663",0.00080441762900485
"664",5.49560397189452e-14
"665",0.225827501463129
"666",0
"667",7.18314296932476e-14
"668",0.0085507936697633
"669",0.0977398569142411
"670",0.0180793426711843
"671",0
"672",0
"673",0
"674",0.016295884051915
"675",0
"676",0
"677",0
"678",0
"679",0
"680",9.67021229758558e-09
"681",0.153322526365279
"682",8.98852844317677e-05
"683",0.290333247851205
"684",0.0805949621055361
"685",0.059779039197246
"686",0.818311366787785
"687",0.00535339200058993
"688",0
"689",0.00137609845085795
"690",0
"691",0.85808879038813
"692",0
"693",1.24678045665405e-13
"694",0
"695",0.00124510904387443
"696",0
"697",0
"698",0
"699",3.54466456187197e-11
"700",0
"701",0
"702",0
"703",0
"704",0
"705",0
"706",0
"707",1.01296472321266e-08
"708",0
"709",0
"710",0
"711",0
"712",0
"713",0.000104302940301282
"714",0
"715",0
"716",0
"717",0.00260554393327483
"718",2.13465960463566e-07
"719",0
"720",1.19835858484185e-05
"721",0.0467104997210787
"722",9.53586316009281e-05
"723",0
"724",0
"725",0
"726",0
"727",0
"728",0.0756344987275506
"729",0.00389164252096585
"730",0
"731",0
"732",0
"733",0
"734",0.512990328206065
"735",0
"736",0.00528990541398522
"737",0.0130286664080677
"738",0
"739",3.39062111720523e-13
"740",0.00205059375842798
"741",1.64849311978799e-09
"742",0
"743",0
"744",0
"745",0.124764930249012
"746",0.00282498620968652
"747",0.00794080638923567
"748",3.10726949588336e-05
"749",0.000840334213738636
"750",0.0746200949026788
"751",0.0220392457643086
"752",6.12832431493571e-05
"753",0
"754",0
"755",0
"756",0
"757",0
"758",0
"759",4.29876800822626e-10
"760",0
"761",0.053893444572554
"762",8.66973159929785e-13
"763",3.94941856995956e-11
"764",6.21325213501223e-12
"765",0
"766",0.0578343434178348
"767",0
"768",0.201317129672759
"769",0.000812678497116415
"770",0
"771",2.02060590481778e-14
"772",0
"773",0
"774",0.00127860088425591
"775",0
"776",0.000173755804374509
"777",0.00039369607896711
"778",0
"779",0.00131853180969599
"780",4.86033435720401e-11
"781",3.19735349307848e-11
"782",0.000316331259107239
"783",1.26377374566333e-05
"784",2.52020626589911e-14
"785",0
"786",0
"787",0
"788",0
"789",0
"790",0
"791",7.43849426498855e-15
"792",7.04234076609467e-08
"793",6.2808647172119e-12
"794",0
"795",4.12891942858096e-13
"796",2.16570828837082e-06
"797",5.68081698126832e-07
"798",1.54777372030068e-08
"799",0
"800",2.32747154882418e-12
"801",2.59330375970146e-05
"802",2.07611705604904e-14
"803",0
"804",8.256163930076e-06
"805",0
"806",0
"807",0
"808",7.7715611723761e-16
"809",7.05933389522073e-09
"810",9.99200722162641e-15
"811",0.00364395048261723
"812",0
"813",5.36237720893951e-14
"814",0
"815",0
"816",0
"817",0
"818",2.99060776143278e-11
"819",0
"820",0
"821",0
"822",0
"823",0
"824",0.000156478869014709
"825",0
"826",0.082168518383985
"827",0
"828",0
"829",0
"830",0
"831",0
"832",3.42562089805654e-10
"833",9.63229496164786e-13
"834",0.884678638747793
"835",5.26504608910905e-07
"836",0
"837",1.03639479490658e-05
"838",0
"839",0.0168665491078938
"840",8.63697514227324e-05
"841",0
"842",0
"843",0
"844",0
"845",6.99853548447038e-08
"846",0
"847",4.59148979647939e-06
"848",1.34266584513876e-05
"849",0
"850",5.52990986335544e-11
"851",0
"852",1.01654099515791e-06
"853",1.18689651440462e-08
"854",1.704036836081e-07
"855",0
"856",9.39453070891716e-09
"857",0
"858",4.90384399753907e-10
"859",0.000457413572106158
"860",0
"861",0
"862",1.47002918837735e-07
"863",0.00334234381861243
"864",0.0710809496987582
"865",0
"866",0
"867",0.0268647478902914
"868",0
"869",7.03881397612349e-14
"870",0
"871",0.0433962206043882
"872",0
"873",0
"874",0.0394360984853306
"875",3.91292553914013e-11
"876",6.45369335527946e-07
"877",3.1647695443171e-05
"878",4.18494993537077e-06
"879",7.57552841790243e-07
"880",0.00599815508831625
"881",0.000177050025450431
"882",0
"883",0
"884",0
"885",2.12980572000809e-06
"886",0
"887",3.34540950497342e-10
"888",0
"889",2.51755383207097e-09
"890",0.060194758088032
"891",0
"892",3.81222540202231e-08
"893",2.70593903839433e-07
"894",0
"895",0.000246981640104726
"896",0.00213551616117236
"897",1.2632117574185e-12
"898",0
"899",0
"900",0
"901",0
"902",0.0206157221318033
"903",0.0027015157250172
"904",0
"905",0.00559092320251264
"906",0
"907",0
"908",0
"909",0
"910",2.58107579753641e-09
"911",0.005213894105215
"912",3.70226072021751e-12
"913",0
"914",0
"915",0
"916",0
"917",0
"918",0
"919",0
"920",0.0605915522369742
"921",0.200064391990498
"922",0
"923",0
"924",0
"925",0.309198598851607
"926",0.184131631674341
"927",0
"928",0
"929",0
"930",0
"931",0
"932",0
"933",0
"934",6.99440505513849e-15
"935",0
"936",0
"937",0
"938",0
"939",0
"940",0
"941",0.763330053769629
"942",0
"943",0.24090225958971
"944",0
"945",0
"946",1.77851067206802e-11
"947",1.9379794435892e-09
"948",0
"949",0.0457467326178903
"950",0
"951",5.2676085715575e-11
"952",0.0582210995787893
"953",0
"954",0.00101813494866521
"955",1.69497749169523e-12
"956",0
"957",0
"958",0
"959",0
"960",0
"961",0
"962",0
"963",0
"964",0
"965",0
"966",0
"967",0
"968",0
"969",0
"970",0
"971",0
"972",5.77315972805081e-15
"973",0
"974",0
"975",0
"976",0
"977",0
"978",0
"979",0
"980",0
"981",0
"982",0
"983",0
"984",0
"985",0
"986",0
"987",0
"988",0
"989",0
"990",0
"991",0
"992",0
"993",0
"994",0
"995",0
"996",0
"997",0
"998",0
"999",0
"1000",0
"1001",0
"1002",0
"1003",0
"1004",0
"1005",0
"1006",0
"1007",0
"1008",0
"1009",0
"1010",0
"1011",0
"1012",0
"1013",0
"1014",0
"1015",0
"1016",0
"1017",0
"1018",0
"1019",0
"1020",0
"1021",0
"1022",0
"1023",0
"1024",0
"1025",0
"1026",7.56061879769732e-14
"1027",0
"1028",0
"1029",0
"1030",0
"1031",0
"1032",0
