"","x"
"1",7.44218201287339e-07
"2",0.00118962033020187
"3",0.0108132381555734
"4",0.000136501061764327
"5",0.58597622750607
"6",0.540485042245426
"7",0
"8",0.648591446618744
"9",0.998347225679646
"10",0
"11",0
"12",0
"13",0
"14",0
"15",0
"16",0
"17",0.00779664512984712
"18",0
"19",1.11022302462516e-16
"20",1.599709054112e-08
"21",4.91828799908944e-14
"22",0.0230995611364566
"23",0.0933068755381918
"24",0.388481658852437
"25",0.0316359691151264
"26",0.0316183391553265
"27",0.0982641111006006
"28",1.05868464735925e-05
"29",0.333313687945356
"30",0.0016108564479872
"31",0.0847956838750582
"32",0
"33",0.000376295255634429
"34",0.0615067257372626
"35",0.0201259057125395
"36",0.472621686659197
"37",3.78160342816569e-05
"38",0.880802091716911
"39",0.751393514719114
"40",0
"41",0.00633195938573972
"42",0.93577001293162
"43",2.76827611046526e-05
"44",0
"45",1.14924736394073e-11
"46",0
"47",0
"48",0
"49",0.0307937021486169
"50",9.60662660531852e-11
"51",9.64616607768143e-06
"52",0
"53",2.7695570281594e-09
"54",0.000200701236196088
"55",1.89825932750409e-12
"56",0
"57",0.0449686794682422
"58",0
"59",0
"60",0
"61",7.73729069952767e-05
"62",0
"63",0
"64",0
"65",0
"66",0
"67",0
"68",0
"69",0
"70",0
"71",0
"72",0
"73",0
"74",0.0594083941551835
"75",0.129651891416681
"76",0
"77",0
"78",0.000457429739853188
"79",0.0883871241177822
"80",0
"81",0
"82",8.17923506701845e-11
"83",1.58144108919345e-09
"84",1.54189994105991e-11
"85",5.45119505090952e-14
"86",0
"87",0
"88",0
"89",0
"90",0.00304972912873425
"91",0
"92",0
"93",0
"94",8.88178419700125e-16
"95",3.55840848116351e-05
"96",0.000207085268058793
"97",0.000357533749074768
"98",1.09871001185979e-11
"99",0.273451502621674
"100",0
"101",8.88178419700125e-16
"102",0
"103",2.391443498162e-05
"104",0.0879868407843472
"105",0.737170914080647
"106",0.00869376275676426
"107",0.172304724662479
"108",1.03363718617633e-06
"109",0.178531530229091
"110",0
"111",0.312713523957732
"112",0
"113",2.04686678451083e-06
"114",0
"115",0
"116",7.0118444384093e-09
"117",0
"118",3.85538290181842e-09
"119",3.02979863420205e-13
"120",0
"121",0
"122",0
"123",0
"124",3.97576949140444e-09
"125",0
"126",0.0381753812160464
"127",1.61740689308409e-06
"128",0
"129",0.00948919713274321
"130",0.00360843158707513
"131",2.42028619368284e-14
"132",3.45850775100853e-05
"133",0.00102896795286922
"134",0
"135",0
"136",0
"137",0.093427341681573
"138",0.000297616455641969
"139",0.00795908723431293
"140",0
"141",0.000110080220227737
"142",0.130665030055189
"143",0.0144769570885322
"144",0
"145",0.00178722976878709
"146",0.0308891343718694
"147",3.03045366578658e-11
"148",0.000163459122861198
"149",8.67805507792641e-05
"150",0
"151",0.103615246736725
"152",0
"153",0.22790602202355
"154",0.00046932231707153
"155",0.00893536980062826
"156",0.0293738239467923
"157",0.338455632989285
"158",0.0307202826184221
"159",6.84763357128304e-12
"160",0
"161",7.88957002503254e-05
"162",7.29087379358617e-09
"163",3.19242514390528e-06
"164",0.000639379106779803
"165",5.28867172278069e-10
"166",0.299246952523192
"167",0.123838419543365
"168",0.0893649685017239
"169",0
"170",0.384637650659525
"171",3.01631428296645e-05
"172",0.519888403910598
"173",0.273436087751041
"174",0.336476046959307
"175",0.000705685549693524
"176",0.418917414030168
"177",0.000244541562750444
"178",0.267734408136333
"179",2.11498840663182e-09
"180",0.0281979552970479
"181",0.834762477647857
"182",0.382094172644972
"183",0.0237107746286574
"184",0.000705031549978918
"185",0.130610482722524
"186",0.000432256035518219
"187",0.131806178084896
"188",0
"189",1.71263003778677e-11
"190",4.62052138932023e-05
"191",0.821438769160375
"192",0.102110571610952
"193",2.77030196560446e-08
"194",0.132406358530699
"195",0.00281394167532234
"196",8.78186412478499e-13
"197",0
"198",0.0396179770446967
"199",0.0244357714180184
"200",0
"201",0.00837563513878048
"202",0.00563861332836957
"203",0.454191475684288
"204",0.0300009595107056
"205",0
"206",0.261509731877811
"207",1.74247967843488e-06
"208",0.142639893876882
"209",0
"210",0.064562200643661
"211",0
"212",4.63801271166631e-07
"213",0
"214",0.443748412422201
"215",4.7315579088103e-07
"216",0.228601074069977
"217",0
"218",0
"219",1.07436615159884e-09
"220",0
"221",0
"222",0
"223",0
"224",0
"225",0
"226",0
"227",0
"228",0
"229",0
"230",0
"231",0.0286657262002882
"232",0.0614496045969301
"233",0.00033779476506246
"234",8.07988220774547e-09
"235",0
"236",0
"237",0
"238",0
"239",0.564573974840099
"240",0
"241",0.19462609716264
"242",0.222468999360756
"243",0.00295776957442462
"244",0.330211891546547
"245",0.00648063652820019
"246",0.321909814713313
"247",0.311810373227158
"248",0.454823120052177
"249",0.743053115986524
"250",0.108630339393076
"251",0
"252",0.711203973078086
"253",0.104969427102822
"254",0.0437014070809106
"255",0.406358831717032
"256",0
"257",0.764897046757128
"258",0.00478472287599629
"259",0.0647981796551053
"260",0.00670901782589373
"261",0
"262",0
"263",0
"264",0.848768065291462
"265",0.148065849668095
"266",0.06736601094468
"267",0.434293123808355
"268",1.40998324127395e-14
"269",0.624800611267327
"270",0.0990351494989719
"271",0.060753540185269
"272",0.304424249551187
"273",0.0981934656000921
"274",0
"275",0
"276",0.108651681664955
"277",0.0211424858805305
"278",0
"279",0.133815359290443
"280",0
"281",0.326590963762288
"282",0
"283",0
"284",0.915473244196001
"285",0
"286",0.116621922037284
"287",0.336253624077114
"288",0.241631418129079
"289",0.155499153587083
"290",0.0473823881380798
"291",1.51499257583509e-10
"292",0.0402417667910581
"293",0
"294",0.000263678565606051
"295",0
"296",0.0717659270363232
"297",0.107017669432206
"298",0
"299",0.779901201848478
"300",0.325069578948917
"301",1.80004289251912e-09
"302",0
"303",0.18215706199122
"304",0.0687377148027574
"305",0
"306",0
"307",0
"308",0.606461116369088
"309",0.426544765072355
"310",0
"311",0.386350465368296
"312",0
"313",0.00183010908198467
"314",0.597656074953198
"315",0.288919920356631
"316",0.833325139405982
"317",0.00183825574548668
"318",0.0186708357497781
"319",0.313681239048002
"320",0.0253169928808321
"321",0
"322",0.0668853863686468
"323",4.11115474552304e-07
"324",0.0958922210404648
"325",0
"326",4.13380776231875e-05
"327",0
"328",0
"329",0
"330",2.19725970751483e-09
"331",0
"332",0
"333",1.06905003405267e-07
"334",2.23654080044877e-06
"335",5.44009282066327e-14
"336",3.34559636483434e-06
"337",0
"338",1.92068583260152e-14
"339",0
"340",0
"341",2.84631989956319e-05
"342",0
"343",0
"344",0
"345",0
"346",0
"347",0
"348",0
"349",0
"350",2.53454629004501e-05
"351",0
"352",1.59983137848485e-13
"353",5.65504949090467e-07
"354",0
"355",0
"356",0
"357",0
"358",0
"359",0
"360",0
"361",0.607859685674489
"362",0
"363",0.00510368281336548
"364",0.0661380055396149
"365",0.000103390831327599
"366",0.0965391680711006
"367",1.14673621151029e-05
"368",0.039822483550493
"369",0.00306562243706809
"370",0
"371",0
"372",0
"373",0.445673728300789
"374",0.0490572116367357
"375",7.93981437985369e-06
"376",0
"377",0
"378",0
"379",0
"380",0
"381",0
"382",0
"383",0
"384",0
"385",0.00054723409369406
"386",0.000178404886829187
"387",0.000312954484141592
"388",0
"389",0
"390",0
"391",2.75721400933016e-07
"392",7.74464727794077e-05
"393",0
"394",0.509205321267338
"395",5.04085596153558e-07
"396",2.43071007766105e-10
"397",2.92571384896689e-08
"398",4.27456211098409e-05
"399",0.000233059556750126
"400",0
"401",0
"402",0.41230838618328
"403",0
"404",0
"405",0.0285150379299411
"406",0
"407",0.0477789498342241
"408",3.41758996103003e-07
"409",0
"410",7.7715611723761e-16
"411",0
"412",0
"413",0
"414",1.33226762955019e-15
"415",0
"416",0
"417",0
"418",0
"419",0
"420",0
"421",0
"422",0
"423",0
"424",0
"425",0.000276795266775043
"426",0
"427",0
"428",0
"429",0.117512787545333
"430",0.000150696390487259
"431",0
"432",0
"433",0
"434",0
"435",0
"436",0
"437",2.48154393700517e-08
"438",0
"439",0
"440",0.114936449120203
"441",4.37295977206986e-10
"442",0
"443",0
"444",0
"445",0
"446",0
"447",0
"448",0
"449",0
"450",1.28476584926318e-09
"451",1.21018121668204e-06
"452",2.44015918582363e-12
"453",1.87402104945278e-09
"454",6.87438994617651e-12
"455",0
"456",0
"457",0
"458",0
"459",0
"460",0.14356090919723
"461",1.39689016354083e-07
"462",0
"463",0
"464",0
"465",2.38031816479634e-13
"466",4.69874852065955e-05
"467",0.000858142381768401
"468",0.00201260003340331
"469",0
"470",0
"471",0
"472",1.20361780542311e-08
"473",0
"474",0
"475",0
"476",0
"477",0
"478",0
"479",0
"480",0
"481",0
"482",0
"483",0
"484",0
"485",0
"486",0
"487",0
"488",0
"489",0
"490",0
"491",0
"492",0
"493",2.00284233642378e-13
"494",0
"495",0
"496",3.49149553824368e-05
"497",0
"498",0
"499",0
"500",0
"501",0
"502",0
"503",0
"504",0
"505",0
"506",0
"507",0
"508",0
"509",0
"510",0
"511",0
"512",0
"513",0
"514",0
"515",0
"516",0
"517",0
"518",0
"519",0
"520",0
"521",1.05808334563973e-05
"522",3.54423548287741e-08
"523",7.57410800744651e-11
"524",0
"525",0
"526",0
"527",3.23675698585824e-05
"528",0
"529",0
"530",0
"531",0
"532",0
"533",0
"534",0
"535",0
"536",0
"537",0.119174960798969
"538",0
"539",0.495532113970196
"540",0.0580257814369386
"541",0.00264462927928488
"542",0.181295114140747
"543",0
"544",0.165035514146719
"545",0.137299367653402
"546",0.0452027273969955
"547",0
"548",0.00617521111837771
"549",0.0271952306633018
"550",0.579776411320613
"551",0.116198923124294
"552",0.0126736090271693
"553",0.00189918912748743
"554",4.81777845257048e-05
"555",0.489548102213648
"556",0.400343802616147
"557",0.00015847695904192
"558",0
"559",0.0509571252634701
"560",0.275150242074807
"561",9.2112247417675e-05
"562",0.00105364217892923
"563",0.503004762672222
"564",0.00672989588979012
"565",1.71935420645308e-06
"566",0.000155311863192509
"567",0
"568",0.227558005906135
"569",0
"570",0
"571",0.000543108134893888
"572",0.0224827861628933
"573",0.000446319198215916
"574",0
"575",0
"576",0
"577",0
"578",0.0620462247208984
"579",0
"580",0.788521638071992
"581",0
"582",0
"583",0
"584",0
"585",0
"586",0.177697698561343
"587",0
"588",0
"589",0
"590",0
"591",0
"592",0.00981386895104441
"593",3.62359445580385e-05
"594",0.0337229223579734
"595",0.24273805453998
"596",0
"597",2.48706141903199e-06
"598",0.26126256370083
"599",0.000689845051210836
"600",1.32782251860419e-09
"601",0.0767099895089717
"602",0
"603",0.0548866326782808
"604",0.112454742236584
"605",0
"606",0.0697711132574725
"607",0
"608",0
"609",0.330284794263376
"610",0.203961894430091
"611",0.975082577695073
"612",0
"613",0
"614",0.927704325576083
"615",0
"616",0
"617",0
"618",0.00551413140195056
"619",0.00176129803716951
"620",0.436550258969009
"621",0.270832568468458
"622",0.000219821769743445
"623",0
"624",0.284758444021833
"625",0.279171594971082
"626",0.310019890891871
"627",0.915592816021882
"628",0.842802868313114
"629",1.62314606200198e-13
"630",2.57903221735356e-05
"631",0.00135767205204995
"632",0
"633",0
"634",0
"635",0.141266808579526
"636",0.000320315597239884
"637",0.275205038943821
"638",0.00179297391235433
"639",0.00829864682249026
"640",0.006744920268691
"641",0
"642",0
"643",0.222885937090436
"644",0.0187221991227341
"645",0
"646",2.22044604925031e-16
"647",0.000986531124307688
"648",2.83407942436309e-06
"649",0
"650",0
"651",0
"652",0
"653",1.77719727822989e-10
"654",0
"655",0.000105299433202033
"656",0
"657",0
"658",0.889948905988849
"659",0.189720756308242
"660",0
"661",0
"662",1.11022302462516e-16
"663",0.323163240733568
"664",0.000784655496784192
"665",0.658213988825021
"666",0
"667",0.035226501541511
"668",0.0760220463167872
"669",0.312259961567809
"670",0.013980210334676
"671",0
"672",0
"673",0
"674",0.00914293681739509
"675",0
"676",0
"677",8.99280649946377e-15
"678",0
"679",1.45439216225896e-14
"680",1.35729510440941e-05
"681",0.172106342360196
"682",1.75136648528085e-06
"683",0.0365054837121328
"684",0.00729022038932514
"685",0.105862458615588
"686",0.17852345971185
"687",0.759951941353635
"688",1.63913752571077e-08
"689",0.745581250908089
"690",0
"691",0.111020289368333
"692",0
"693",0.00771324537594476
"694",0
"695",0.00429088520979171
"696",3.99680288865056e-15
"697",3.719140496794e-06
"698",0
"699",5.03147953619942e-05
"700",0
"701",0
"702",0
"703",3.53417581866466e-08
"704",1.11022302462516e-16
"705",0
"706",0
"707",0.182304697500678
"708",9.65036194300328e-06
"709",0
"710",0.000147001857558893
"711",0
"712",0
"713",0.161932139700711
"714",0
"715",0
"716",0
"717",0.0266609328201078
"718",0.190412306059946
"719",8.29469636054458e-06
"720",0.154361122465993
"721",0.461323266495748
"722",0.188338172334292
"723",0
"724",0
"725",0.0002887358599728
"726",0
"727",0
"728",0.307039863681527
"729",0.319690933374485
"730",0
"731",0
"732",2.31745558421093e-06
"733",0
"734",0.148302532056572
"735",0
"736",0.30593806274642
"737",0.0483351589127085
"738",2.56923993191549e-09
"739",0.278574433718234
"740",0.0652017567439545
"741",0.817236700505106
"742",1.86517468137026e-14
"743",1.26442190051534e-10
"744",0
"745",0.360769125987859
"746",0.693178523353241
"747",0.328287902504119
"748",0.0245258362846544
"749",0.0275642718954653
"750",0.664069632752116
"751",0.312927239249991
"752",0.405506340996451
"753",0
"754",0
"755",0
"756",0
"757",9.36657561401155e-07
"758",0
"759",0.000673940679581042
"760",0
"761",0.215971568485545
"762",0.0120520075800699
"763",0.176879629769315
"764",0.000600965170207246
"765",0
"766",0.254096930103552
"767",0
"768",0.118956218989047
"769",0.000515714712310156
"770",0
"771",0.00190065109979087
"772",0
"773",0
"774",0.00657177564011902
"775",0
"776",0.104840973014774
"777",0.00623358357995862
"778",0
"779",0.0121339687668555
"780",0.000836113678425399
"781",6.48413963438843e-05
"782",0.00604168480683653
"783",0.00911809547478237
"784",0.00531248515270866
"785",0
"786",0
"787",0
"788",0
"789",0
"790",9.82325332188339e-13
"791",0.1303727591977
"792",0.0657384742633196
"793",0.0122337992809373
"794",1.80870210364503e-07
"795",0.0133483889779596
"796",0.109368496093445
"797",0.0635372645390049
"798",0.00545088530211735
"799",0
"800",0.0178761359553974
"801",0.0610709301259812
"802",0.0297991835082644
"803",0
"804",3.58554328333538e-05
"805",0
"806",0.0423221311336913
"807",0
"808",7.08119397795359e-05
"809",0.226976164021108
"810",1.37543761713488e-07
"811",0.821996286482889
"812",0
"813",0.0822730289468784
"814",0
"815",1.30784272300843e-13
"816",0
"817",0.0103597092314173
"818",0.0103934851492582
"819",9.53158538299359e-05
"820",1.4323512820269e-06
"821",0
"822",1.99840144432528e-15
"823",1.11022302462516e-15
"824",0.0151797268784404
"825",4.17337479408086e-06
"826",0.504628213621378
"827",0
"828",0
"829",3.00134152819709e-06
"830",0
"831",0
"832",1.62419509072143e-05
"833",0.000474673798770864
"834",0.0159208258741861
"835",9.09307339848064e-05
"836",0
"837",0.00032623202791715
"838",5.46559464353891e-11
"839",0.592694678333859
"840",0.00141966913999769
"841",3.08419956240868e-13
"842",0
"843",7.08211267408387e-13
"844",0
"845",0.0164908741252392
"846",0
"847",0.325975527693516
"848",0.45339787216999
"849",0
"850",0.00388438017126969
"851",0
"852",0.102673988715321
"853",0.00819885018613664
"854",0.562889987574007
"855",4.27793356294615e-11
"856",0.0220456189832782
"857",2.99760216648792e-15
"858",0.132881130526441
"859",0.57229538414602
"860",0
"861",0
"862",8.58255646541961e-05
"863",0.125698069556568
"864",0.54723296373422
"865",0
"866",0
"867",0.00201842687250298
"868",0.0222129061421356
"869",0.0163430393484219
"870",0
"871",0.00321684474808015
"872",0
"873",0
"874",0.121491251491722
"875",0.0188899859489718
"876",0.0726040214745638
"877",0.430296382813928
"878",0.0762677545118573
"879",0.00407444760357145
"880",0.00491567950397354
"881",0.00221589204815631
"882",0.000550964600702475
"883",0
"884",0
"885",0.000324462281847016
"886",0
"887",0.0403909697690517
"888",0
"889",0.0164789550800973
"890",0.315017423991194
"891",2.3011270694262e-05
"892",0.000113748114113688
"893",5.74441131486747e-05
"894",0.032359515005202
"895",0.0687405229661763
"896",0.0976999897436923
"897",0.00127470779918015
"898",0
"899",0
"900",0
"901",0
"902",0.00114225193719064
"903",1.16443082509576e-07
"904",0
"905",0.000342133217597129
"906",0
"907",0
"908",0
"909",0
"910",0.0205477532410006
"911",0.433238348983974
"912",1.65404301366578e-09
"913",6.25866899639504e-06
"914",8.93729534823251e-14
"915",0
"916",0
"917",0
"918",0
"919",0
"920",0.00343447548405196
"921",0.00134493645431433
"922",0
"923",4.04223024608186e-07
"924",0
"925",0.0920645492484098
"926",0.0168137205291015
"927",0
"928",1.22455323658954e-09
"929",5.88418203051333e-15
"930",1.17105723174138e-06
"931",0
"932",0
"933",0
"934",0.00986149271992676
"935",0
"936",2.12944217814481e-10
"937",0
"938",0
"939",0
"940",0
"941",0.337881172705224
"942",0
"943",2.13990403175046e-09
"944",0
"945",0
"946",0.000299167225233155
"947",5.34959462373807e-05
"948",0
"949",1.66041193683242e-05
"950",0
"951",4.23628979284718e-06
"952",0.00271347786291043
"953",0
"954",0.00213936179980878
"955",0.00290501386323949
"956",0
"957",0
"958",2.28705943072782e-14
"959",0
"960",0.000921469324471458
"961",5.33679038899892e-05
"962",5.14895953098726e-05
"963",3.530509218308e-14
"964",0
"965",0
"966",0
"967",0
"968",0
"969",0
"970",0
"971",0
"972",0.000554254033225288
"973",0
"974",0
"975",0
"976",0
"977",0
"978",0
"979",0
"980",1.22124532708767e-15
"981",0
"982",4.15556478117196e-11
"983",0
"984",0
"985",0
"986",0
"987",0
"988",0
"989",0
"990",0
"991",0
"992",0
"993",0
"994",0
"995",0
"996",0
"997",3.50830475781549e-14
"998",0
"999",0
"1000",0
"1001",0
"1002",0
"1003",0
"1004",0
"1005",0
"1006",0
"1007",0
"1008",0
"1009",0
"1010",0
"1011",0
"1012",0
"1013",0
"1014",0
"1015",0
"1016",0
"1017",2.94072322049033e-09
"1018",1.11022302462516e-16
"1019",0
"1020",0
"1021",0
"1022",0
"1023",0
"1024",1.70412673972109e-08
"1025",0.0017388831778653
"1026",0.00407307330748208
"1027",0
"1028",0
"1029",0
"1030",0
"1031",0
"1032",0
