"","x"
"1",0
"2",0
"3",0
"4",0
"5",0
"6",0
"7",0
"8",0
"9",0
"10",0
"11",0
"12",0
"13",5.96189764223709e-14
"14",0
"15",0
"16",0
"17",0
"18",0
"19",0
"20",0
"21",8.25233659185187e-10
"22",2.47086452964673e-06
"23",2.42112161430441e-07
"24",0
"25",0
"26",0
"27",0
"28",0
"29",0
"30",0
"31",1.41320177782234e-10
"32",0
"33",0
"34",0
"35",0
"36",0
"37",2.01281589728985e-07
"38",0
"39",0
"40",0
"41",0
"42",0
"43",0
"44",0
"45",0
"46",0
"47",0
"48",0
"49",0
"50",0
"51",0
"52",0
"53",0
"54",2.66453525910038e-15
"55",1.33226762955019e-15
"56",0
"57",0
"58",0
"59",0.0253465946823072
"60",0.0301487877741169
"61",0
"62",0
"63",0
"64",0
"65",0
"66",0
"67",0
"68",0
"69",0
"70",0
"71",0
"72",0
"73",0
"74",0
"75",0
"76",0.000307584848268094
"77",0
"78",0
"79",0
"80",0.00313419337459009
"81",0
"82",0
"83",0
"84",0
"85",0
"86",0
"87",0
"88",0.0517914138531417
"89",0.0488882393017883
"90",0.0065227632843704
"91",0.649862498635456
"92",0
"93",0
"94",0
"95",0
"96",0
"97",0
"98",0
"99",0
"100",0.185314835253725
"101",0
"102",0.836613787307181
"103",0.000721759652924203
"104",0
"105",0.00303866459872548
"106",0.00304468828316395
"107",0
"108",0.478729061635412
"109",0
"110",0.0185030607850768
"111",0.0300505037402525
"112",0.308712363147434
"113",0
"114",0
"115",0
"116",0.205760034322758
"117",0.0556035650166935
"118",0.025770225767462
"119",0.109185714664037
"120",0.0796469356055377
"121",0.0179237837446151
"122",0.0484052965949461
"123",0
"124",0
"125",0.905037193939466
"126",0.839917451533901
"127",0
"128",0.00429872735026593
"129",0.162854699696275
"130",0.875016490794497
"131",0
"132",2.15375273171503e-10
"133",0
"134",0
"135",0.19161753327084
"136",0
"137",0
"138",0
"139",0.597520478365186
"140",0.00182559652387693
"141",0.31249065185094
"142",0.556674617628414
"143",0
"144",0
"145",0
"146",0.804060064037659
"147",0.150614703101527
"148",0
"149",0
"150",0.622910530586138
"151",5.38085132006927e-11
"152",0
"153",0.467114756988506
"154",2.29134844431655e-09
"155",0.851454355005687
"156",0.332461165932267
"157",0.318307252217559
"158",0
"159",0
"160",0.475723858574568
"161",0.89050948758792
"162",0.949341461514913
"163",0
"164",0
"165",1.70155463674604e-05
"166",0.224540649362442
"167",0.000311197694437215
"168",5.96387051693403e-05
"169",0
"170",0
"171",0
"172",0.00426657353312987
"173",0.68196454799841
"174",0.153304900645509
"175",0.369104509651878
"176",0.523684717452715
"177",0.377315093858896
"178",3.45001804902267e-12
"179",0.918486347856139
"180",0.0943320531703162
"181",0.0941244720434814
"182",0.0738176574192905
"183",0.0015672478277784
"184",0.0456422488792013
"185",0
"186",0.164436196356321
"187",0
"188",0
"189",1.16706644348596e-11
"190",0.00536377101214913
"191",0.854762827467418
"192",0.305271876035074
"193",0.106904894975256
"194",0.0298501032597103
"195",0
"196",0.375322190291066
"197",0
"198",0.150245681101809
"199",0
"200",0.211344619934344
"201",0.0220216741332601
"202",0
"203",0.380050538042718
"204",0
"205",1.27619470546847e-10
"206",0.018166042715289
"207",0.296062292956053
"208",1.18831936146702e-06
"209",0.877308820323923
"210",0.0183526041087383
"211",0
"212",0.337897787284064
"213",0.0820849406857309
"214",2.91547265688363e-05
"215",0.53728934099898
"216",3.49398288079783e-10
"217",0.43820707362624
"218",0
"219",0
"220",0
"221",0
"222",0
"223",0
"224",0
"225",0
"226",0
"227",3.73377995188662e-11
"228",0
"229",0.101364449076928
"230",0.0477387537844518
"231",0
"232",0.00454691008461861
"233",0
"234",0
"235",0.214229091472566
"236",0.0224053306182923
"237",0
"238",0.000676442298181534
"239",0.676445237543453
"240",0.137590509672832
"241",1.01697761323294e-10
"242",0
"243",0
"244",0
"245",0
"246",0
"247",0.677649252161345
"248",0
"249",0
"250",0
"251",0.0597584843082251
"252",0.283441242048014
"253",0
"254",0.66660095536273
"255",0
"256",2.63572657731581e-05
"257",0
"258",0.833252684350476
"259",0.582519796502016
"260",1.98339056955987e-07
"261",0
"262",0
"263",0
"264",0
"265",0
"266",0
"267",0
"268",0
"269",0
"270",4.67265584127574e-05
"271",0
"272",0
"273",6.78845868407052e-12
"274",0.154514246589925
"275",0.018569762601351
"276",0
"277",0
"278",0
"279",0
"280",0
"281",0
"282",0
"283",5.01810243913603e-06
"284",0
"285",0
"286",0.669127429446527
"287",0.49238021229154
"288",0.473245437443794
"289",0
"290",0
"291",0
"292",0
"293",0
"294",0.263167391474757
"295",0
"296",0.0671484391964418
"297",0.000474173782470388
"298",0
"299",0
"300",0
"301",0
"302",0
"303",0.380096797100249
"304",0.000595406728222891
"305",0
"306",0
"307",0
"308",0.702373724669547
"309",0
"310",0
"311",0
"312",0.161237317065436
"313",0.601752109925746
"314",0.782517252692238
"315",0.201006773142206
"316",7.82181775803581e-05
"317",0.130672913692322
"318",0.038654606846369
"319",0
"320",0
"321",4.86361459557383e-05
"322",0.311719834752665
"323",8.43941383443791e-09
"324",0.39261667777808
"325",0.0734821671610942
"326",0.0775063097598702
"327",0
"328",1.37512609155177e-06
"329",0
"330",0
"331",0
"332",0
"333",0
"334",0
"335",0
"336",0
"337",0
"338",0
"339",1.72702616652032e-08
"340",0
"341",0.547925732018079
"342",0.212089662248594
"343",0
"344",0
"345",0.102948055735406
"346",0.00158505847804313
"347",0.00585999904890311
"348",0.268433641037372
"349",0
"350",0
"351",0
"352",0
"353",0
"354",0
"355",0.883952753369753
"356",0.456472486960381
"357",0.802185064672396
"358",0.0922624824358903
"359",1.99955947703945e-05
"360",0.0103714082088638
"361",0.977207040478752
"362",0
"363",0.262077295988544
"364",0.582995180274579
"365",0
"366",0
"367",0.908549912566523
"368",0.875292275933832
"369",0
"370",0
"371",0.00716628302995781
"372",0
"373",0.0172263468797311
"374",0.48869120878139
"375",0
"376",0
"377",0.00674454004305403
"378",0
"379",1.40941557156271e-05
"380",0
"381",0
"382",0
"383",0.405390462716903
"384",0.0342266241907134
"385",0
"386",0.877392868004606
"387",0
"388",0.26799078796199
"389",0.0240944568950776
"390",0.0073837825644526
"391",0.291315709503612
"392",0.0202666603114141
"393",0.482136785484955
"394",0.828932949220452
"395",1.29896093881143e-14
"396",0
"397",0
"398",0
"399",0
"400",0.923801618230285
"401",0
"402",0.241914646015556
"403",0.155879906898168
"404",0.848182050981036
"405",0
"406",0
"407",0
"408",0
"409",1.42060807561961e-11
"410",0.954820153511538
"411",0
"412",0
"413",0
"414",0
"415",0
"416",1.55758906883463e-08
"417",0
"418",0
"419",0
"420",0
"421",0
"422",0
"423",0
"424",0.00291269803597016
"425",0
"426",0
"427",0.387545295233862
"428",0.00318858232044472
"429",0
"430",0
"431",0.00901654739889945
"432",0.0166518832589282
"433",0.0799219404671563
"434",0.622360527227241
"435",0
"436",0
"437",0
"438",0
"439",0
"440",0
"441",0
"442",0
"443",0.0857755632686649
"444",0.000151531867961352
"445",0
"446",0
"447",0.00157127805254687
"448",0.444957240105405
"449",0
"450",0
"451",0
"452",0.0437021965972858
"453",0
"454",3.10862446895044e-15
"455",0.0928937736878401
"456",0
"457",0
"458",0
"459",3.33066907387547e-16
"460",0.355550611317839
"461",0
"462",0
"463",0
"464",0
"465",0
"466",0
"467",0
"468",0
"469",0.828844597603451
"470",0.43017867057832
"471",1.90025338066002e-05
"472",0
"473",0
"474",0
"475",0.158246116995937
"476",0
"477",0
"478",0
"479",0.741875924207137
"480",0.792504111581812
"481",0
"482",0
"483",0.491975828309183
"484",0
"485",0.495361934405146
"486",0
"487",0
"488",0
"489",5.73430192218893e-13
"490",0
"491",0
"492",0
"493",0
"494",0
"495",0
"496",0
"497",0
"498",0
"499",0
"500",0
"501",0
"502",0
"503",0
"504",0
"505",0
"506",0
"507",0
"508",0.181797317999249
"509",0
"510",0
"511",0
"512",0.000120376563749858
"513",0.595202436685244
"514",0
"515",0.000880629352061235
"516",0.170977335702557
"517",0.0114936778699164
"518",0
"519",9.16901687908478e-09
"520",0
"521",0
"522",0
"523",0.0229566080526015
"524",0.00103609282437778
"525",0
"526",1.30473587300894e-06
"527",5.12579556577464e-09
"528",0.0116667505546213
"529",0.228413355757867
"530",0.0520983326673652
"531",0
"532",0.00773484338905028
"533",6.03918927644109e-07
"534",0
"535",0
"536",0
"537",0
"538",0
"539",4.33563371708967e-05
"540",0
"541",0.000566319198701537
"542",0.0172726636674283
"543",0
"544",0
"545",0
"546",0.0496315206923036
"547",0
"548",5.23070586844199e-10
"549",1.79343608519567e-07
"550",0.46948689883767
"551",0
"552",0.0601158574124913
"553",0
"554",0.589106911738043
"555",0
"556",0
"557",0.000896063290079296
"558",6.82666293716494e-06
"559",0
"560",0
"561",0
"562",0
"563",0
"564",0
"565",0
"566",0
"567",0
"568",0
"569",0
"570",0
"571",0
"572",0
"573",0.000125427309468518
"574",1.4564716832588e-07
"575",3.33066907387547e-16
"576",1.25627270637363e-05
"577",7.85693232696616e-09
"578",6.27400604058526e-06
"579",0.000639260431280819
"580",0
"581",0.038452932181576
"582",0
"583",0
"584",0
"585",0.449899817110772
"586",0.155395728826989
"587",0
"588",0.0981893279101275
"589",0.00395320011574996
"590",0
"591",0
"592",0.294728949032635
"593",0.34094819207917
"594",0.504946548944764
"595",0.982038888595074
"596",0.110864195008156
"597",0.00184216075771637
"598",0.789270772856737
"599",0.0287692512785166
"600",0
"601",0
"602",0
"603",0
"604",0
"605",0.392234834260249
"606",0
"607",0.244437246402877
"608",0.070694597550407
"609",0.391823669754358
"610",0
"611",0.250958508127986
"612",0
"613",0.881663885924573
"614",0.86786868822612
"615",0
"616",0
"617",0.211103108512214
"618",1.05204711609019e-09
"619",0.127342892101842
"620",3.73527141073193e-06
"621",0
"622",0
"623",0
"624",2.41622277741271e-11
"625",0
"626",0
"627",0
"628",0
"629",0
"630",0
"631",0
"632",0
"633",0
"634",0
"635",0
"636",0
"637",0.935047221163995
"638",0.0987812958871741
"639",9.22523678269505e-05
"640",0.343608092521687
"641",3.55206772882921e-05
"642",0.15964480062006
"643",0.204219282416324
"644",0.0130292836596958
"645",0.999139252332949
"646",0
"647",0
"648",0
"649",0
"650",0
"651",0.58120500414527
"652",0
"653",0
"654",3.50463958557201e-05
"655",3.33633683315959e-05
"656",0.0143616888476488
"657",0.488463251818151
"658",0
"659",0
"660",0
"661",0
"662",0.00177021977728575
"663",0.0214531784949604
"664",0.0536021207882045
"665",0.00154487482723131
"666",0.0427539140586066
"667",0
"668",0
"669",0.244687937538577
"670",0.000159548708240864
"671",0
"672",0.00207636646797738
"673",0.00925627622467984
"674",0.00172066712789043
"675",0
"676",0
"677",0.000157456765127684
"678",0
"679",1.30888034854948e-08
"680",0
"681",0.0915283564252691
"682",0
"683",0
"684",0.183770732896969
"685",0.828469654519576
"686",0
"687",0.358896871136502
"688",0.118000954779134
"689",0.00149330033371486
"690",0
"691",0
"692",0
"693",0
"694",0
"695",0
"696",2.22044604925031e-16
"697",0
"698",0
"699",0
"700",0
"701",0
"702",0
"703",0
"704",4.73329994865601e-07
"705",0
"706",1.36475608591979e-10
"707",0
"708",4.06234046401721e-10
"709",0
"710",0
"711",0.209600378883197
"712",0
"713",0
"714",0
"715",0
"716",0
"717",0
"718",0
"719",0
"720",0
"721",5.15991851468556e-07
"722",0
"723",1.59832359014622e-07
"724",0
"725",5.02022527169022e-05
"726",3.4090552603061e-10
"727",4.39648317751562e-14
"728",0
"729",4.50750547997814e-14
"730",0
"731",0
"732",0.811663726712498
"733",0.533773172831644
"734",0
"735",0
"736",0
"737",0
"738",0
"739",0
"740",1
"741",0
"742",0.67120892190785
"743",0.0743814420441158
"744",6.67660455507813e-05
"745",0.201498191272699
"746",0.00141063027163169
"747",0.746946244920364
"748",0.755472647173094
"749",0.289151940092846
"750",0.00210174673771613
"751",0.375299227091864
"752",0
"753",0
"754",0.0205404802550332
"755",0.173317314392536
"756",0.259489663066595
"757",0.367149439543986
"758",0.242362823896438
"759",2.8332891588434e-12
"760",0
"761",0.810890433538392
"762",0
"763",0
"764",0.0342544143794886
"765",0
"766",0.643950835176705
"767",0
"768",0
"769",4.44089209850063e-16
"770",0
"771",0
"772",0
"773",0
"774",5.06626916019215e-06
"775",0.155333552482361
"776",0
"777",0
"778",0
"779",0
"780",0
"781",0
"782",0.000705064378960008
"783",0.179890644735271
"784",0
"785",0
"786",0
"787",0
"788",1.77635683940025e-15
"789",0
"790",0.121428931914876
"791",0
"792",0
"793",0
"794",0
"795",0
"796",0
"797",1
"798",0
"799",0
"800",0
"801",0
"802",0
"803",3.84248188822767e-13
"804",0
"805",1.54835033683298e-11
"806",0
"807",0
"808",0.00294302422228632
"809",0.000120989089801959
"810",0.000128299425321221
"811",0.000554672736517992
"812",0
"813",0.0306373582455981
"814",0
"815",0.372992495977389
"816",0.00492931198620217
"817",2.22044604925031e-16
"818",6.2826410740513e-12
"819",0
"820",0
"821",0
"822",0
"823",0
"824",0
"825",0.0154752253454677
"826",0
"827",1
"828",0.0748815173522406
"829",0
"830",0
"831",0
"832",0
"833",0
"834",0
"835",0
"836",0
"837",0
"838",0
"839",0
"840",0
"841",0
"842",1.15594411820297e-09
"843",0
"844",0
"845",0
"846",0
"847",0
"848",0.0310881795038499
"849",0
"850",0
"851",0.0216293587012863
"852",0.040596762083947
"853",0.453965473781123
"854",0.146602574942751
"855",0.245226645376688
"856",0.619111869281082
"857",0
"858",0
"859",0
"860",0.00163051232254219
"861",0.0211329576058878
"862",0.000916096579481995
"863",0
"864",0.065111224707818
"865",0.200350758554656
"866",0.129128853485394
"867",0
"868",0.00647817024958186
"869",0
"870",0.592624316347786
"871",0.0519271920900641
"872",0
"873",0.961984742724864
"874",0
"875",0.240482474049962
"876",0.035338080794741
"877",0
"878",0
"879",0
"880",0
"881",0
"882",0
"883",0
"884",0.528088687870488
"885",0
"886",0
"887",0
"888",0
"889",0
"890",0
"891",0
"892",0
"893",0
"894",0
"895",0
"896",0
"897",0.0267032797021829
"898",0
"899",1.61606283910487e-11
"900",0
"901",0.050401729617402
"902",0.547220824088507
"903",0.31362192717531
"904",1.36505661729736e-06
"905",0
"906",0.14849971422487
"907",0.743754253736837
"908",0.065712778176049
"909",0.158416514495608
"910",0.00443155107131099
"911",0.0461675295862113
"912",0
"913",0
"914",0.109472467932564
"915",0.00785478496443359
"916",0
"917",0.999999999935491
"918",1.70555091139057e-06
"919",0
"920",0.118842200044465
"921",0
"922",1.01114610318032e-06
"923",0
"924",0.992137332952678
"925",0
"926",0
"927",0
"928",0
"929",0
"930",0
"931",0
"932",1.41565981159886e-10
"933",0.56924146790091
"934",0
"935",0
"936",0.619484287747222
"937",0.0222040697790304
"938",0
"939",0
"940",0.405191202931619
"941",0
"942",0.318931157669129
"943",0
"944",0
"945",0
"946",0
"947",2.14446849660099e-05
"948",0.307110950490686
"949",0.350300900946966
"950",0.480787408490169
"951",0.00699633940928801
"952",0.0474037699605886
"953",0.491685871757603
"954",7.18678450084553e-11
"955",0.999999999989502
"956",0.000134691068543913
"957",0
"958",0
"959",0
"960",0
"961",0.0155574353147853
"962",0.306624837762787
"963",0
"964",0.110798720779096
"965",0
"966",0.0849844588497318
"967",0
"968",0
"969",0
"970",0
"971",0
"972",0
"973",0
"974",0
"975",0
"976",0
"977",0
"978",5.80366569580271e-07
"979",0
"980",0
"981",0
"982",0
"983",0
"984",0
"985",0
"986",0
"987",0
"988",0
"989",0.324929093078723
"990",1.12404739049943e-06
"991",0.0106336637448392
"992",0.284507840673694
"993",0
"994",0.791209452629689
"995",0
"996",0.828076731984747
"997",0.368605216764686
"998",0.277751189598919
"999",0
"1000",0
"1001",0
"1002",0.405002507180553
"1003",0
"1004",0.483895636399202
"1005",0
"1006",0
"1007",0
"1008",0
"1009",0
"1010",0
"1011",0
"1012",0
"1013",0
"1014",0
"1015",0
"1016",0
"1017",0
"1018",0
"1019",0
"1020",0
"1021",0
"1022",0
"1023",0
"1024",2.93284873891242e-05
"1025",0.0265465817714921
"1026",0
"1027",0.478732980726769
"1028",0.00650503893624732
"1029",0
"1030",0
