"","x"
"1",0.0106916460499002
"2",0.00460038096330984
"3",0.370050167249187
"4",0.309872801059926
"5",0.0356405850809689
"6",0.00569348077450482
"7",0.800203114105765
"8",0.00260759894989004
"9",0.51000385927144
"10",0.142367226799907
"11",0.0156592566355197
"12",0.590006012840659
"13",0.981721274474538
"14",0.154269231860895
"15",0.000198758009308353
"16",0.0469649175200405
"17",0.617809380569737
"18",0
"19",0.0016311369885541
"20",0.0169786187609776
"21",0.563205411045433
"22",0
"23",0.0441907160155345
"24",0.172994942148929
"25",0.838662698046277
"26",0.503122799567793
"27",0.029594159153456
"28",0.245942753107564
"29",0.0443715731582263
"30",7.51819994793124e-06
"31",0.000789632746118873
"32",0.253499658863968
"33",0.416555772515783
"34",0.202572847906411
"35",0.109154683688081
"36",0
"37",0.034381652270187
"38",0.00139120651319735
"39",0.656905423918009
"40",0
"41",0.17213117414406
"42",0.0157322509189312
"43",0.646044982227898
"44",0.00318107313156435
"45",0.00304259759510694
"46",0.0169656659619142
"47",0
"48",0.0838665367879563
"49",0.0322097551285386
"50",0.477874379334179
"51",0.353040722838756
"52",0.21653200262147
"53",0.0104214672303173
"54",0.0644341740478387
"55",0.0951553051011684
"56",0.0329156900303372
"57",0.235724529280879
"58",0.0019741807953717
"59",0.0405833680323309
"60",0.0816550981474278
"61",0.0839043274573816
"62",0.030256838245274
"63",0.0117089356233957
"64",0.217866846288914
"65",1.83186799063151e-14
"66",0
"67",0.54135452873096
"68",0.00136436561151243
"69",4.53723290838592e-06
"70",0.154298626515276
"71",5.45067238371111e-05
"72",0
"73",0.00252706678628012
"74",5.87836253076457e-05
"75",0.0421766443783563
"76",2.92820082652412e-05
"77",0.764146566932028
"78",0.000418778033530631
"79",0.21282651925121
"80",0
"81",0
"82",1.44162954918148e-06
"83",0.11566550875278
"84",0.443544016007124
"85",0.45042202300266
"86",0.214046736434538
"87",0.0974333202896022
"88",0.53818567317372
"89",0.237098196446049
"90",0.636607376564407
"91",0.112552692741128
"92",0.0284375751905674
"93",6.95544631601486e-06
"94",0.636080846505195
"95",0.000441314058343911
"96",6.28386231937839e-14
"97",0.574464623397493
"98",1.77900547626564e-08
"99",2.05044773537999e-06
"100",0.0269491369118006
"101",0
"102",1.63083523393448e-05
"103",1.11022302462516e-16
"104",0.00161462936307932
"105",5.95962729166288e-08
"106",1.74306015732206e-07
"107",0.221120398459744
"108",0
"109",9.97015591119865e-06
"110",3.20543948051366e-08
"111",5.01698448218679e-06
"112",0.697243531093462
"113",1.78897230362907e-10
"114",4.15714084156527e-07
"115",0
"116",0.00236220964149847
"117",6.58724644504449e-05
"118",3.27182725357034e-13
"119",0.00030429161146317
"120",0.142456025649467
"121",5.90502085007216e-08
"122",0.000326270422105979
"123",0.00223351128234539
"124",4.35895690542587e-07
"125",0
"126",0
"127",0.585786675929738
"128",0
"129",7.31161131639624e-09
"130",0.00535334731184278
"131",5.35895887383564e-05
"132",0.00948287742240583
"133",0.00347545515580072
"134",0
"135",0
"136",0.276194096484708
"137",0.555622367941123
"138",0.687279340915181
"139",0.0110940214603619
"140",0
"141",1.37913978037751e-06
"142",0.000161506567421421
"143",0.000948517824378436
"144",0.146717419734109
"145",0.000744856720984011
"146",0.00200882763375876
"147",0.0206912327796446
"148",6.42891837210335e-07
"149",0.640773664027405
"150",0.00343447796645568
"151",0
"152",1.11022302462516e-16
"153",7.0475336677589e-10
"154",5.96862559376632e-11
"155",2.17346580733135e-07
"156",1.41202334269508e-06
"157",8.4821039081362e-14
"158",0
"159",0.0142207548343326
"160",0.0039466014408176
"161",0.00320251941149419
"162",1.19315668456466e-10
"163",0.13009645729753
"164",0.00382170521022429
"165",0.498769236300836
"166",0.332043297116141
"167",0.000250194547155691
"168",0.685382885941247
"169",0.10981887924366
"170",0.00623320487690526
"171",0.0173390243192374
"172",0.766975730073329
"173",0.837378331785298
"174",0.142278618436207
"175",0.517930925426076
"176",0.181861846332349
"177",0.367870568903474
"178",0.0078856601093199
"179",0.431672019134463
"180",0.180394171815
"181",0.139621532167404
"182",0.0823271069198461
"183",0.00979539912252714
"184",0.0332717706590062
"185",0.21323429091523
"186",0.338886535846801
"187",0.00853372212036607
"188",0.0438941738423406
"189",0.220552481732571
"190",0.0368294249676897
"191",0
"192",0
"193",0.0754781223959542
"194",0.0131728813811811
"195",0.402882304208203
"196",0.161000257100591
"197",0.330326249352341
"198",0.301699552395282
"199",0.0246808263179468
"200",0.376538518381827
"201",0.0195748965119278
"202",0.671617858180082
"203",0.868422166687341
"204",0.831372113809489
"205",0.764533658178334
"206",0.0755554796430902
"207",0.907118937046692
"208",0.0470546678075617
"209",0
"210",0
"211",0.201545679952236
"212",0.0104090804395697
"213",0.015872487727942
"214",0
"215",1.54384394157603e-10
"216",0.0174100531719245
"217",0.211073323263606
"218",0
"219",0.0038669799133747
"220",0
"221",0
"222",5.06871687477872e-06
"223",0.102181629170056
"224",4.4621479944329e-07
"225",0
"226",0.000116628162517562
"227",0.0351396157087875
"228",5.06249301368555e-06
"229",0
"230",0.355121779872049
"231",0.204505625340324
"232",0.0900608071751458
"233",0
"234",0
"235",0.0169728438278475
"236",0.0278076294249586
"237",0.0321275378427461
"238",0.439798724641758
"239",0
"240",0.14020433774555
"241",1.11022302462516e-16
"242",3.8702093101084e-05
"243",0.0199556942160151
"244",0
"245",0
"246",0.00912236962014179
"247",0
"248",0.0114409596931261
"249",0
"250",1.68484122842205e-06
"251",0.000457309630592762
"252",0
"253",2.56866180192716e-06
"254",0.0820490634357609
"255",0.0317871402024812
"256",0.167121445398796
"257",0.000282789712802156
"258",8.7476315080437e-10
"259",1.77635683940025e-15
"260",4.08352533162182e-05
"261",7.36821714752978e-12
"262",2.17506508837229e-06
"263",0.0277053750725602
"264",0
"265",3.11098206084992e-07
"266",0
"267",8.19913615479617e-06
"268",7.09254877051535e-12
"269",0
"270",1.63857816204427e-12
"271",1.39008568544874e-07
"272",7.34640357002991e-06
"273",1.18201226584347e-10
"274",1.15352172258554e-13
"275",2.4651392038777e-12
"276",0
"277",3.37166626762642e-06
"278",7.66053886991358e-14
"279",0
"280",0.152451751624773
"281",6.26219397337202e-05
"282",6.37984057361152e-07
"283",8.49766701449539e-10
"284",0
"285",2.62144284057797e-09
"286",3.70448116626676e-12
"287",0.0992377139313241
"288",4.20716880911165e-05
"289",0.000706744223673339
"290",1.28809586330547e-08
"291",8.45468484111933e-09
"292",0.00134978002149277
"293",0
"294",7.97573016075859e-07
"295",3.8556258186162e-10
"296",3.03090885722668e-14
"297",5.99231664288880e-09
"298",1.77613479479533e-12
"299",0.00229024460148686
"300",0
"301",2.79428914451429e-08
"302",1.6359151810974e-09
"303",0
"304",3.14637205178769e-13
"305",1.04260107214316e-08
"306",1.63424829224823e-13
"307",0
"308",0
"309",5.05151476204446e-14
"310",0.106898146519194
"311",0
"312",0.0124052174836352
"313",0.000216785047460033
"314",0.0153952167998838
"315",2.76005910349042e-08
"316",6.87058771435822e-05
"317",0.0929664162648478
"318",2.17057895808281e-05
"319",2.09865902434103e-10
"320",6.69546223922568e-05
"321",0.00404401032399737
"322",1.31052604324111e-08
"323",6.32472630551772e-05
"324",0.0679165362910759
"325",0.000157785624989581
"326",0.200221311367993
"327",3.34518169750053e-05
"328",2.46547013016407e-06
"329",0.00344877359321671
"330",0.00461797361892824
"331",1.60383375930051e-05
"332",0.0192459108632345
"333",3.59505136771077e-09
"334",2.35317671741786e-05
"335",0.000970785913283034
"336",0.0176746765504506
"337",7.8285489202301e-10
"338",0
"339",0.00789791835999643
"340",1.0439094033643e-11
"341",6.44817532702291e-13
"342",8.41535576667773e-07
"343",2.65016897316173e-11
"344",0.000630297156619553
"345",1.66309459537217e-07
"346",0
"347",6.69109212481089e-12
"348",0.00116863473806128
"349",7.18396354881801e-06
"350",5.15740142570387e-06
"351",5.30231414330729e-12
"352",0.00369757047116615
"353",6.28962552513546e-05
"354",5.50032180839377e-05
"355",0.189906015134925
"356",0.0150555068996107
"357",0.00247135103705742
"358",0.000422513933021507
"359",0
"360",0.00147610793438058
"361",3.49793687648425e-06
"362",0.000928706160897019
"363",0
"364",0
"365",1.45006229246292e-12
"366",0
"367",1.07255315739962e-11
"368",0.0106049365702177
"369",0.0067233112368732
"370",0
"371",0.0197591651762538
"372",0.252876182115868
"373",4.91506835231803e-12
"374",0.237096769398962
"375",0.000401882803342857
"376",0
"377",0
"378",1.68585182291903e-06
"379",0.00734728891409986
"380",0
"381",0
"382",0
"383",0
"384",1.01268782317643e-05
"385",0.0359369249627405
"386",1.04724464877748e-07
"387",5.54151523968205e-06
"388",1.14902299519493e-06
"389",4.65642049300996e-05
"390",0.000454032242638847
"391",0.0046862703041225
"392",0.65603516126959
"393",0.00013989381395263
"394",0.0024337074024825
"395",2.58847477763169e-05
"396",0
"397",0.0164858028201713
"398",4.55506337307954e-05
"399",0.574606035481385
"400",0.00732427657417001
"401",0.00109199078976419
"402",1.24461813078014e-06
"403",0.294872601166505
"404",3.21170443573493e-08
"405",0.000281557806920185
"406",0.00219663944893755
"407",0.462730224586386
"408",0
"409",0
"410",0.135845330034297
"411",0.189499025416529
"412",0
"413",0
"414",0.124879375577168
"415",4.60043127687992e-05
"416",0.000387067629107229
"417",0.0171299550170226
"418",0.0947603377112961
"419",0.343347453870454
"420",0.460864076308404
"421",0
"422",0.0462402662907728
"423",0.19149581672452
"424",0
"425",0.000322399114064398
"426",2.59225454660728e-05
"427",0.00129708588545285
"428",0
"429",0
"430",0
"431",0
"432",0.000165925698358826
"433",0
"434",0
"435",0
"436",7.29398427212757e-08
"437",0.0213999468533099
"438",5.6488147492928e-12
"439",0
"440",2.29467567169905e-09
"441",0.000186403674615532
"442",0.000513179718211187
"443",0.00354614782316409
"444",0
"445",2.14374999640832e-07
"446",0.237025873051057
"447",0.00094416171896039
"448",0
"449",0
"450",0
"451",0.000390844873715435
"452",0
"453",0.0320770257052885
"454",2.33146835171283e-14
"455",0.448673586774914
"456",0.0162542832720786
"457",0
"458",0
"459",0.000173562126771443
"460",0.00326459161706139
"461",0
"462",0
"463",0.999999998549384
"464",0
"465",0
"466",8.11229423687276e-05
"467",0
"468",0
"469",0
"470",0.0211070441040857
"471",0
"472",0
"473",0
"474",0
"475",0
"476",3.89251237908894e-08
"477",0
"478",0
"479",0.0959471103307963
"480",0
"481",0
"482",5.03285643160822e-08
"483",0
"484",0
"485",0
"486",0
"487",0
"488",0
"489",0
"490",0
"491",1.27886425560497e-07
"492",1.892543912696e-07
"493",0
"494",0
"495",0
"496",1.14407194828914e-09
"497",8.27090562705024e-09
"498",0
"499",0
"500",0
"501",0.000399825215719019
"502",4.77857975411666e-10
"503",0
"504",0
"505",0
"506",0
"507",0
"508",0
"509",1.95254923340826e-12
"510",0
"511",0
"512",0
"513",0
"514",0
"515",0
"516",0
"517",2.8184699019107e-10
"518",0
"519",0
"520",0
"521",0
"522",0
"523",0.043867100572125
"524",0
"525",0
"526",0
"527",0
"528",0
"529",0
"530",0
"531",0
"532",5.56679035090824e-07
"533",0.00473429219889232
"534",0.00275345764209667
"535",0
"536",0
"537",0
"538",2.05782169082624e-10
"539",0.00198820867631011
"540",0
"541",0.0404479352723294
"542",0.000149964730667418
"543",0.934386916078448
"544",0
"545",0
"546",0
"547",0
"548",0
"549",0
"550",0
"551",3.27476648565028e-06
"552",1.30915801754838e-07
"553",0
"554",1.31357924537667e-10
"555",0.0311175367094304
"556",2.57586008078903e-09
"557",0.000124783449504728
"558",7.74797460856291e-06
"559",0
"560",0
"561",3.61364355982996e-06
"562",0
"563",0
"564",0
"565",3.09261949382744e-10
"566",9.72228964002397e-11
"567",0.000861221693023828
"568",1.70730096726857e-12
"569",0
"570",0.378749218452312
"571",0
"572",0.516085342752441
"573",0.316870121400682
"574",0
"575",0
"576",0
"577",3.68727874433539e-06
"578",0
"579",0.00222448883091531
"580",0
"581",0
"582",0
"583",0
"584",0.00177357653935684
"585",0.00062369823920394
"586",0.00713312320897674
"587",0.386737840678746
"588",0.0629589374171328
"589",0
"590",0
"591",0.00121664927761467
"592",0.0704848156402527
"593",0.0236664461206558
"594",9.30617170624704e-06
"595",6.63430578251578e-08
"596",0.00308401830916416
"597",0.000240194725676268
"598",0
"599",0.0600400236600954
"600",1.5567818145712e-09
"601",0.0504281157676953
"602",0.0190417458027843
"603",0.000289056271223664
"604",0.000319967124808862
"605",0.0132930027066251
"606",0.000311146618210523
"607",0.000834026457722126
"608",4.44626251372426e-08
"609",0.000812245747784379
"610",4.23188040377109e-06
"611",0.000943567776640175
"612",0.05391711580645
"613",1.21152764431809e-06
"614",0
"615",0.00430546926897879
"616",0.000525068340706536
"617",0.168095414769666
"618",0.00562995080890605
"619",0.0134194266508673
"620",0.000155361740479809
"621",0.000695459918160557
"622",0.00165108507529521
"623",0.00104442457363185
"624",9.9174002343716e-12
"625",0.000217375193382052
"626",0.038238115413883
"627",0.115126472407834
"628",0.00476896027753537
"629",0.0124114082087277
"630",0.0126411227028839
"631",0.446379374724737
"632",0.0782451206200493
"633",1.59735193463462e-05
"634",0.0706958971606999
"635",0
"636",0
"637",0
"638",0.206427008352117
"639",0.145349728266909
"640",0.000498224667810465
"641",0.00281027633024444
"642",2.41695552460897e-12
"643",8.88178419700125e-16
"644",0.170478944778166
"645",0.00780292445816844
"646",0.417062028174274
"647",0.753363570878951
"648",0
"649",0.0515468922898566
"650",0.0515356565299616
"651",0.00186322621138379
"652",9.64300495009951e-09
"653",0.137193737761069
"654",0
"655",0.000206287643220615
"656",3.66373598126302e-15
"657",0
"658",1.08744124815985e-11
"659",0
"660",0
"661",0.39336865955686
"662",1.77905723630634e-06
"663",5.42420874882765e-09
"664",0
"665",0.00360932238946865
"666",0
"667",0.00210801715256981
"668",0.114621907541353
"669",0.0301528982416573
"670",0.00181787525266985
"671",0.0136018559415663
"672",1.21158638677343e-12
"673",0
"674",0.00463723485362166
"675",0.0228208843849181
"676",4.37427871702312e-14
"677",0.0554280512971761
"678",0.00124031779325118
"679",8.23024282059492e-09
"680",0.00590911868338762
"681",0.15248180368012
"682",0.000535829586398417
"683",0.0345916449226235
"684",0.010665995049418
"685",7.78441888538151e-06
"686",0
"687",5.50824497125291e-10
"688",2.08588594285963e-07
"689",1.84297022087776e-14
"690",7.78136757695336e-07
"691",0
"692",0.00364416415460012
"693",2.79337067921048e-08
"694",1.06178399406076e-11
"695",5.60538371274788e-09
"696",3.67483821150927e-13
"697",2.4599746129006e-08
"698",4.95436136560556e-10
"699",0.000373797080128635
"700",9.753309271332e-13
"701",1.11022302462516e-16
"702",0.0014136145710052
"703",4.88498130835069e-15
"704",1.46886947050007e-11
"705",1.15804128508756e-08
"706",0
"707",0
"708",0.0112516768683952
"709",0.00527136014704632
"710",0.788449496312679
"711",0.106768840339919
"712",0.321857837410678
"713",0.271578114671547
"714",0
"715",9.99200722162641e-16
"716",0.654306328946545
"717",0.39767592680155
"718",0.760033127231588
"719",0.621764098710116
"720",0.209621975371706
"721",0
"722",0.63409703535958
"723",0.872692553202076
"724",0.000506254908385517
"725",0
"726",1.15313536497297e-10
"727",0.0660449873053816
"728",0.24781097096375
"729",0.000694340930717408
"730",0.0110645761638916
"731",0.0855307245123752
"732",0.00323048952785288
"733",0.0580410244360186
"734",0.0488514100912754
"735",0.14843956116073
"736",0.00108180921442613
"737",1.86344801200722e-06
"738",1.41886502547095e-13
"739",0.000465687927082015
"740",0.00141747822863225
"741",4.1709005237256e-05
"742",4.41775414028456e-07
"743",0.050218899686287
"744",8.27192453400905e-06
"745",0.000708908082212578
"746",3.02523983808367e-06
"747",0.000106045994080595
"748",6.90109109202641e-06
"749",1.02508085699782e-05
"750",0
"751",1.98887954127036e-05
"752",0.207204064311634
"753",4.25250057389803e-10
"754",0.0667233320908073
"755",0.0338906749976471
"756",2.2551215462796e-06
"757",0.00442798469654837
"758",2.17180632261504e-05
"759",3.34228778352541e-05
"760",9.10250085841557e-05
"761",0
"762",1.65909156968347e-06
"763",0
"764",9.24652576728136e-11
"765",3.33066907387547e-16
"766",0.0160199839414852
"767",0.000173415045056968
"768",1.62476605392037e-07
"769",0
"770",0
"771",0.0963417065382636
"772",0.014840211037209
"773",0.00213954418708528
"774",0.0240723925361996
"775",0.00871332688762139
"776",0.0279359108874624
"777",0.51570473192832
"778",8.21648304949463e-11
"779",0.0410232403818425
"780",0.00208342772893866
"781",0.0932808948056536
"782",0.199051926935819
"783",0.489369892499749
"784",0.0129603063496625
"785",0.0768418569911932
"786",0.300548343579241
"787",0.111696116099461
"788",0.0353440257535622
"789",0.00488919534295451
"790",0.071471706543498
"791",0.00381817931890882
"792",0.969866457089498
"793",0.0794509095348213
"794",0.0907606761130016
"795",0.133709043303673
"796",0.562994775548986
"797",0.589755716597856
"798",0.321388278674886
"799",0.000297181731956364
"800",0
"801",0.00131474032060452
"802",0
"803",0.181534670732147
"804",0.418118108938641
"805",0.0182486353944811
"806",0.0724352444081834
"807",0.00433866327322563
"808",0.0482702424328064
"809",0.116506500524971
"810",0.0137834006959933
"811",4.21884749357559e-15
"812",0
"813",0
"814",0.030788001455803
"815",0.154431372598211
"816",0.892923035593345
"817",0.168573851391638
"818",0
"819",0
"820",5.5666249387798e-11
"821",0
"822",2.2881679415554e-05
"823",0
"824",2.20934381900406e-14
"825",0
"826",0.000830597812492395
"827",0.00165643253125236
"828",5.23561981435883e-07
"829",0.947767835789839
"830",0
"831",0
"832",0
"833",0.00055220584552329
"834",0.000357265661335981
"835",0
"836",0.0121617260784144
"837",0
"838",0
"839",0.00100406331807912
"840",4.78094230871307e-11
"841",0
"842",0
"843",1.06760759677194e-07
"844",0
"845",0
"846",0
"847",0
"848",0
"849",0
"850",0
"851",0
"852",0
"853",0
"854",0
"855",0
"856",0
"857",0
"858",0
"859",0
"860",0
"861",9.19819775901942e-13
"862",4.87776485869063e-12
"863",0
"864",0
"865",0.0077341316394689
"866",1.04249942012302e-13
"867",3.24107407578822e-12
"868",1.59302915303527e-09
"869",1.60401691928769e-11
"870",2.28966902104943e-08
"871",0
"872",4.31743922724159e-07
"873",0.0197376439207452
"874",0
"875",0
"876",0
"877",2.09495049086073e-08
"878",0
"879",2.16890990589746e-05
"880",0
"881",0
"882",0
"883",0
"884",0
"885",1.36756535795701e-06
"886",0.000313860100462082
"887",0.00169720659033523
"888",0.0541463698059372
"889",6.35575571061864e-07
"890",0.00819724678212674
"891",3.78519762089802e-07
"892",0.108216710183726
"893",0.00961684601599777
"894",2.45207458049457e-06
"895",0.0634982345116464
"896",0.000141162659813343
"897",6.97320399275503e-05
"898",0.0273938560201146
"899",4.38612469677579e-08
"900",0.424733836926007
"901",1.19723484459655e-08
"902",0.043545360949464
"903",0.000297975620216051
"904",0
"905",0.00014679262064432
"906",6.90182631690739e-06
"907",1.56851710508832e-08
"908",0.0467553619624018
"909",0.000231251517286979
"910",5.25225418712694e-11
"911",2.22044604925031e-16
"912",0.00631727752977618
"913",0
"914",6.48148201776166e-13
"915",4.06031863686707e-07
"916",2.44249065417534e-15
"917",0.000107887474333879
"918",1.14334294095686e-05
"919",1.13116849220773e-10
"920",1.19406439191838e-06
"921",3.15544257389888e-11
"922",1.35129607159445e-05
"923",3.24910331972461e-09
"924",1.03221875491499e-11
"925",0.000333224901586715
"926",2.71838371079802e-06
"927",6.5936145432488e-13
"928",0.000562045695628566
"929",7.67644805499401e-06
"930",0.00242907491668976
"931",0
"932",2.71756162018022e-09
"933",2.52565375058467e-06
"934",1.24637674847605e-07
"935",0.00690465454750411
"936",2.29950306884774e-06
"937",3.50491238720885e-06
"938",6.25829388312127e-11
"939",1.03892809910633e-08
"940",5.31405142112362e-10
"941",1.62608315701362e-09
"942",0
"943",9.10382880192628e-13
"944",0
"945",0
"946",0
"947",0
"948",1.5842882561401e-13
"949",2.81768309684516e-07
"950",2.75755128131827e-06
"951",1.58995561383435e-07
"952",0.895740467483606
"953",3.79577071862869e-06
"954",0.0176609578338055
"955",4.79006286413508e-07
"956",0.031867358363694
"957",0.00102998866344339
"958",0.00732555213563879
"959",6.89448498292222e-14
"960",0.00368950323526651
"961",2.15937823133672e-06
"962",0
"963",9.20677023508176e-09
"964",0
"965",0.234866451028295
"966",0
"967",0
"968",0.631561497709968
"969",0.568545635276267
"970",8.88178419700125e-16
"971",0.0334283296520745
"972",4.14433296125338e-07
"973",3.33066907387547e-16
"974",1.46549439250521e-14
"975",0.0121672966559196
"976",0.0134234937206894
"977",0.515252793929493
"978",0.000101300443940522
"979",0.0414738888597906
"980",0.000465416131758212
"981",0.664204831495891
"982",0
"983",0
"984",0
"985",0
"986",0.0256963730204615
"987",0
"988",0
"989",0
"990",0
"991",1.7696955012525e-13
"992",0
"993",0
"994",0.000137110841214705
"995",0
"996",2.91345628178341e-07
"997",0
"998",0
"999",0.0761225446555132
"1000",0.328244512337482
"1001",5.55111512312578e-16
"1002",3.59138178085416e-08
"1003",0.00179507117775368
"1004",0.269447149950726
"1005",0.068499323128719
"1006",0
"1007",0.0376741606795804
"1008",0.360573139776841
"1009",0.0152712010154831
"1010",1.67593838806823e-09
"1011",0
"1012",0.00742802482422678
"1013",0.179008554434991
"1014",0.00133607878748387
"1015",0.848498414018977
"1016",0.070707691791552
"1017",0.00334280235196038
"1018",3.17692430851224e-06
"1019",0.706166077757753
"1020",1.36735067712834e-10
"1021",0.010376680969426
"1022",0.262499440552229
"1023",0
"1024",0.725497654375955
"1025",0.00656908589570915
"1026",0.0207920143169495
"1027",2.54734543918556e-05
"1028",0.744420895604718
"1029",0.315038964272843
"1030",0.498978519481052
"1031",0.0524672346748836
"1032",0.426105910846959
"1033",0.351306179739555
"1034",0.0754991356868485
"1035",0
"1036",0
"1037",0.00832395224964844
"1038",0
"1039",0.0700518238260204
"1040",0
"1041",0.832929912310573
"1042",0.000107673810751829
"1043",0.162961198125426
"1044",0.0261402677280632
"1045",0.063764770814968
"1046",0.10006581421871
"1047",0.00125815230435655
"1048",0
"1049",0
"1050",0
"1051",0
"1052",0.0781497754714648
"1053",0.731745852086839
"1054",0.676582732327584
"1055",0.923182689661901
"1056",0.291680833208885
"1057",0.715803432112939
"1058",0.0471862976476408
"1059",0.909174739576514
"1060",0.838968036878075
"1061",0.831253297749393
"1062",0.984545132139963
"1063",0.000104583554960236
"1064",0.87307982212448
"1065",0.754098603420321
"1066",0
"1067",0
"1068",0
"1069",0.026700655170106
"1070",0
"1071",0.000400878960139073
"1072",0
"1073",0
"1074",0.939694014292312
"1075",0.240830338490067
"1076",0.525753696924117
"1077",0.464436399265919
"1078",0.529038397856304
"1079",0.419104353416996
"1080",0.436444473368218
"1081",0.00601663533226737
"1082",0.422862681035586
"1083",0.219580945635195
"1084",1.1900702645562e-11
"1085",5.24586653627424e-05
"1086",0
"1087",0.000424037723410042
"1088",1.39853568725812e-07
"1089",0.809836268664055
"1090",0.85879014400922
"1091",0.666424112781312
"1092",0
"1093",0
"1094",0.198413067944837
"1095",0.604663262520476
"1096",0.818555666977448
"1097",0
"1098",0.327672594269055
"1099",0.0690475824414523
"1100",0.0974604737541607
"1101",0.0293227003950113
"1102",0.290992104589089
"1103",0.538404422670139
"1104",0.00309483335212091
"1105",1.98754612767971e-09
"1106",0.922390725352314
"1107",2.60925139128343e-06
"1108",0
"1109",0
"1110",0.0530127009851021
"1111",0
"1112",0.88612192153692
"1113",0.748479851297359
"1114",0.855294954960413
"1115",0.311634838248083
"1116",0
"1117",8.82630376564109e-08
"1118",0
"1119",0.115948457731067
"1120",0.356245196388807
"1121",0
"1122",0
"1123",0.709996576161862
"1124",0.790788056973041
"1125",0.714700529999626
"1126",0.0505246790050528
"1127",0.000276729550568455
"1128",0.0405256352537959
"1129",0.126969791133878
"1130",0.0129272972447125
"1131",0
"1132",0.987086440631124
"1133",0.418142774859927
"1134",0.925672735238336
"1135",0.922766993317327
"1136",0.120824804392132
"1137",0
"1138",0
"1139",0.000560810385341615
"1140",0.00309743270691698
"1141",0.139629787659603
"1142",0.939486663289053
"1143",0.433083802465398
"1144",3.85448339912386e-11
"1145",0.58845575463801
"1146",1.36557432028894e-14
"1147",0.00779058768559782
"1148",0
"1149",0.231583662899353
"1150",0.352703318399158
"1151",0.384058297631446
"1152",0.871356415724874
"1153",0.0647163787274605
"1154",0.553117031995927
"1155",0.870890026809586
"1156",0.00122585368321682
"1157",0.0162320741449878
"1158",0.0808344492463721
"1159",0.655028822347304
"1160",0.0933991254724247
"1161",0.000929565617800332
"1162",0.134188998479545
"1163",0.427537987706023
"1164",0.0126082792903909
"1165",0
"1166",0
"1167",0
"1168",0
"1169",0
"1170",0
"1171",5.79780667919749e-12
"1172",2.25869212222563e-10
"1173",0.0143895673004266
"1174",4.15892875693658e-09
"1175",1.79523063081888e-13
"1176",0.316297846839659
"1177",0.0579096509740856
"1178",0.0092595979051302
"1179",7.29010629640925e-10
"1180",1.40519351710111e-09
"1181",0.759732930658152
"1182",1.77890038055573e-06
"1183",0.0231788101303667
"1184",1.02695629777827e-13
"1185",0
"1186",0.0576513421714695
"1187",0.3330086421819
"1188",0.388589002864011
"1189",0.643298710996507
"1190",0.0223868228769997
"1191",0.210221928795825
"1192",0.55084540872667
"1193",0.789266369843877
"1194",0.00190901845815905
"1195",0
"1196",7.43849426498855e-15
"1197",0
"1198",0
"1199",0
"1200",0
"1201",0
"1202",0
"1203",0.338975776536373
"1204",0.0362340340794779
"1205",0.106107417132441
"1206",0
"1207",0
"1208",0
"1209",0
"1210",0.361163386754782
"1211",0.0298784794127098
"1212",0.0122912537143424
"1213",0.139627205292503
"1214",0.00146802141573166
"1215",0.637978171585575
"1216",0
"1217",0
"1218",0.331870900486442
"1219",0
"1220",0
"1221",0
"1222",0
"1223",0
"1224",0.00482342549822123
"1225",0.249922085231794
"1226",0.176916425711463
"1227",0
"1228",0
"1229",0
"1230",8.35131963583535e-12
"1231",0
"1232",0.782640637989676
"1233",0.0112851326484261
"1234",0
"1235",0.0317234581101793
"1236",0.328327096060879
"1237",0.71070623306042
"1238",0.570001633980245
"1239",0.891451722579381
"1240",0.146411366412662
"1241",2.11007709999267e-05
"1242",0.261313503635259
"1243",0
"1244",0
"1245",0
"1246",0
"1247",0
"1248",0.033755646488029
"1249",0.560816863956855
"1250",0.301447293256339
"1251",0.15528215411715
"1252",0
"1253",0
"1254",0.420765052739399
"1255",0.194441291819546
"1256",0
"1257",0
"1258",5.50918576314174e-08
"1259",0
"1260",0
"1261",0
"1262",0
"1263",3.02902258830784e-10
"1264",0
"1265",0
"1266",0.00795148805408374
"1267",0
"1268",0
"1269",1.95732319241415e-13
"1270",0
"1271",0
"1272",0.0621254254962068
"1273",0.999999999999892
"1274",0
"1275",0
"1276",0
"1277",0.812360485968148
"1278",0
"1279",0
"1280",0
"1281",0
"1282",0.00532825054583907
"1283",0
"1284",0
"1285",0
"1286",0.00461557487056807
"1287",0
"1288",0.0870117645028434
"1289",0.228862353021359
"1290",0.402265079663975
"1291",0.286051839590629
"1292",0.496937244832008
"1293",0.338513518100397
"1294",0.519994362665037
"1295",0.0458127395289153
"1296",0.376842857357939
"1297",0.0798775273575887
"1298",0.0985748813159275
"1299",0.106748149814559
"1300",0.213340685636158
"1301",0.103932080025521
"1302",0.370028360288007
"1303",0.240453042781676
"1304",0.239054390056639
"1305",0.00362297114801979
"1306",0.421187586919992
"1307",0.109212374098899
"1308",0.189806925023091
"1309",0.53040471836409
"1310",0.298981206233695
"1311",0.941277192395867
"1312",0.0556608287220419
"1313",0.232778343554423
"1314",0.587580925329877
"1315",0.973760725725305
"1316",0
"1317",0.57724804232804
"1318",0.290116755369961
"1319",0
"1320",0
"1321",0.1961122233612
"1322",0.376418160310414
"1323",0.615396143726542
"1324",0.609541323163368
"1325",0
"1326",0
"1327",1.31249455748161e-11
"1328",0
"1329",1.7874590696465e-14
"1330",0
"1331",0
"1332",5.65107960426303e-11
"1333",0.160731454739657
"1334",0
"1335",0
"1336",0.0039607938074484
"1337",0.00079359025927106
"1338",0.27020976782298
"1339",0.0225582942440923
"1340",1.6111821537268e-05
"1341",0.114856499632686
"1342",0.00168887247113259
"1343",6.1753851846591e-06
"1344",0.00317757389886564
"1345",0.000157590522281481
"1346",0
"1347",0.00943494379100784
"1348",0.71146066902899
"1349",0.0490608718369906
"1350",0.000421423373092256
"1351",0.00238205046775963
"1352",0.000442451389051302
"1353",0.227460254904997
"1354",2.2465909899072e-07
"1355",0.00937487096913803
"1356",5.01637176242298e-09
"1357",0
"1358",0.0230185403545581
"1359",6.07293769705475e-06
"1360",1.44307898963802e-11
"1361",5.52780043960865e-13
"1362",0
"1363",0.00687175155121977
"1364",0.0576444707314748
"1365",0.00570657234260319
"1366",9.63735830834533e-05
"1367",0.0328064318464975
"1368",3.98175343296892e-06
"1369",0
"1370",1.20987626694991e-07
"1371",0.000217883674328512
"1372",0
"1373",0
"1374",0.000732183682843335
"1375",0.0469203765397854
"1376",0.037516414855039
"1377",0.350587251374555
"1378",0.593808211570281
"1379",1.42419707730435e-05
"1380",0.000433831559919495
"1381",0.04454964139711
"1382",9.75497290756078e-06
"1383",1.89481625390009e-07
"1384",0.276517884311913
"1385",0.0235298124959443
"1386",2.24763104321735e-05
"1387",4.44271792776618e-06
"1388",4.64253604004483e-07
"1389",0.0102665513337943
"1390",1.41657204373313e-05
"1391",0
"1392",0
"1393",2.81994687101328e-06
"1394",0
"1395",0.000962544195205695
"1396",0.00718978222763722
"1397",0.82889000731415
"1398",0.0850626227274672
"1399",0.0206008184911651
"1400",0
"1401",0
"1402",0.210314946502353
"1403",0.37082318872474
"1404",0.094821054190279
"1405",0.155030756358793
"1406",0.129690209646041
"1407",0.0251491870196509
"1408",0.305102030852483
"1409",0.0715538734701988
"1410",0.223647679898454
"1411",0.16056455825379
"1412",0.714594160190212
"1413",0.927334913514646
"1414",0.216167020859342
"1415",0
"1416",0.120178114902956
"1417",0.130797697002752
"1418",0.00110735513638849
"1419",0.246254031418569
"1420",0.0966330039698057
"1421",0.524162852508718
"1422",0.336105380686872
"1423",0.000881668098012267
"1424",0.0119890226638157
"1425",0.8735495640037
"1426",0.0551014546775351
"1427",0.388381034880913
"1428",0.0896572073024181
"1429",0.522133275849962
"1430",0.280719089885308
"1431",0.770280289785765
"1432",0.0326122368995658
"1433",0.67795851213468
"1434",0.399797901991098
"1435",0.000412918774595261
"1436",0.960878799261129
"1437",0.697444434419549
"1438",0.0330187284638451
"1439",0.288649362756453
"1440",0.454796067087949
"1441",0.0275360170750746
"1442",0.424419966601087
"1443",0.0204435601405112
"1444",0.809624440990907
"1445",0.560893768482059
"1446",0.0689033781212801
"1447",0.521647094100744
"1448",0.648813659029477
"1449",0.928615053874249
"1450",0.451281508605893
"1451",0.303292168816053
"1452",0
"1453",0
"1454",0
"1455",0
"1456",0
"1457",0
"1458",0.015968254145726
"1459",1.05796273963676e-06
"1460",0.00118998690121075
"1461",0.0758167083485078
"1462",0.000540255253697497
"1463",0.403019852365081
"1464",0.00700930794444921
"1465",0.00101190839439913
"1466",0.204632298804602
"1467",0.000704932813260895
"1468",0.000319544614264755
"1469",0.0421991171628775
"1470",0.000100288279973881
"1471",0.0421844578208188
"1472",0.000502743546056617
"1473",5.6707999585015e-07
"1474",0.130681823170975
"1475",0.00265801042494662
"1476",4.32638236347316e-09
"1477",0.000631136820000044
"1478",1.90972827107672e-07
"1479",0
"1480",0.56635803425329
"1481",0.560815652897498
"1482",0
"1483",6.22681025186367e-07
"1484",0.0286096539228575
"1485",0.443603925422752
"1486",0.173527627914649
"1487",0.0606082934504539
"1488",0.0110578653953851
"1489",0
"1490",0.260640614893684
"1491",0.056514580448835
"1492",0.281829420020599
"1493",0.0703411160117748
"1494",0.135075546709099
"1495",0.443294962190979
"1496",0.000106307027932351
"1497",0.000731440208376677
"1498",0.201895510503044
"1499",0.0416168264299002
"1500",0.0213011738243726
"1501",0.194447337057584
"1502",0.207404060159056
"1503",0.00151526226634835
"1504",0.249716540444535
"1505",0.0946190514890063
"1506",0
"1507",0
"1508",0
"1509",2.75300037904103e-05
"1510",0.00169057925596494
"1511",0.000396869376003584
"1512",0.000224488826020663
"1513",0
"1514",1.25375940782657e-05
"1515",2.28984464245574e-06
"1516",1.32081945380946e-09
"1517",5.90710491632507e-09
"1518",0.000397053383023649
"1519",4.66118410535898e-09
"1520",5.73703049955299e-06
"1521",8.88178419700125e-16
"1522",9.99200722162641e-15
"1523",0.000149469623872855
"1524",1.8123369471823e-10
"1525",0
"1526",0
"1527",0.048988317829583
"1528",0
"1529",0
"1530",0.026918922118797
"1531",0
"1532",0
"1533",0
"1534",7.64743220971198e-08
"1535",5.19928544662207e-11
"1536",0
"1537",9.66608607939623e-05
"1538",0.0102883056803369
"1539",0
"1540",0
"1541",3.34183019100598e-05
"1542",0
"1543",7.69796448807369e-11
"1544",0.156941963243667
"1545",0
"1546",7.00489333205212e-10
"1547",0
"1548",5.35653077227138e-07
"1549",2.47499717942468e-07
"1550",0
"1551",0
"1552",0
"1553",0
"1554",1.66533453693773e-15
"1555",0.10630148674434
"1556",0
"1557",0.0155913029005095
"1558",0.0295707013130693
"1559",0.0909640522809577
"1560",0
"1561",0
"1562",0.732472241486299
"1563",0.616814874771724
"1564",0.636391385114942
"1565",0
"1566",0
"1567",0.0443157921243341
"1568",0
"1569",0
"1570",0
"1571",1.25539245665607e-10
"1572",2.02772222607228e-05
"1573",7.42067142511793e-07
"1574",0
"1575",0
"1576",0
"1577",0.00247682265687055
"1578",0.000751573129285199
"1579",0.160758928574864
"1580",0.410766419447618
"1581",0.000160857989692231
"1582",6.55501381929824e-06
"1583",6.41802291545535e-05
"1584",0.000121336899294833
"1585",0.00123339226785413
"1586",3.02229149589106e-05
"1587",0.00204608125218364
"1588",0.0436957848341304
"1589",0.316789509504178
"1590",0.000798017621731817
"1591",0.0136206022771647
"1592",1.3344762043177e-06
"1593",0.00659569071948873
"1594",0.000159205256335171
"1595",4.47654668889186e-09
"1596",0.0027636829706299
"1597",0.00706288194075189
"1598",4.02559743695186e-06
"1599",0.00100471348857123
"1600",0.000347475438073341
"1601",2.42072538669813e-06
"1602",1.21341667269625e-07
"1603",2.05422839294478e-06
"1604",0.000319282838701085
"1605",0.00187540834125044
"1606",6.24720504338594e-06
"1607",0.0542473977446446
"1608",2.26255273738651e-06
"1609",0.00389327205810597
"1610",0.0601690650654866
"1611",0.000323966098523032
"1612",0.261814006396443
"1613",1.09585775787124e-07
"1614",1.25437187544764e-05
"1615",2.30098824438585e-07
"1616",0.184825291507534
"1617",9.27804409200927e-06
"1618",0.0138507392898733
"1619",0.245609476787685
"1620",0.0236701051472968
"1621",0.000162793426355612
"1622",2.22044604925031e-16
"1623",4.74692843981384e-05
"1624",2.47362049476951e-06
"1625",0.0267546510285699
"1626",0.204951434825981
"1627",0.000112873291838289
"1628",0.00020665901292638
"1629",4.70241203520683e-06
"1630",0.000283656785245556
"1631",0.00921623019713058
"1632",1.97172495268738e-05
"1633",0.000387197285553587
"1634",4.07773394384137e-07
"1635",0
"1636",0
"1637",0
"1638",0.00137333209421131
"1639",0
"1640",0
"1641",0
"1642",0
"1643",0
"1644",0
"1645",0.0247211119615544
"1646",2.03391747888304e-11
"1647",3.74425968008296e-09
"1648",0
"1649",7.83117822015234e-05
"1650",0.000321120066566816
"1651",0.0449943036547645
"1652",0.48439799838699
"1653",0.000255481482379083
"1654",0
"1655",0
"1656",0
"1657",2.18890684187123e-05
"1658",0.0585806919363205
"1659",2.05877960735013e-06
"1660",6.44669469168635e-05
"1661",9.00282848270706e-10
"1662",4.45615912381125e-06
"1663",0
"1664",0
"1665",0
"1666",3.10881549836495e-07
"1667",0
"1668",0
"1669",0
"1670",1.34526999382434e-05
"1671",2.85795878429695e-06
"1672",0
"1673",0
"1674",0
"1675",0.568921038915085
"1676",0.00326251687266466
"1677",1.34783739721422e-05
"1678",0.082181504767818
"1679",0.170766654856474
"1680",0
"1681",0
"1682",0.155151438967755
"1683",3.51532818902989e-05
"1684",2.22044604925031e-16
"1685",0.0042493067122984
"1686",0
"1687",6.32827124036339e-15
"1688",5.03039676469363e-07
"1689",0.189034375519302
"1690",0.0217376306344028
"1691",0
"1692",0
"1693",0.0756016673633072
"1694",0
"1695",0
"1696",0
"1697",0
"1698",0
"1699",0
"1700",0
"1701",0.0049041542335021
"1702",0
"1703",0
"1704",1.22901688826005e-13
"1705",0
"1706",0
"1707",0
"1708",0
"1709",0
"1710",0.00039208899698473
"1711",0
"1712",0.014480746717479
"1713",0.426852730892041
"1714",0.484738685347725
"1715",0.00145887904781006
"1716",0
"1717",4.63195557687257e-07
"1718",0
"1719",7.22895355798059e-08
"1720",0
"1721",0.164537525372614
"1722",0.000174841533948755
"1723",0.0684119010965613
"1724",0
"1725",0
"1726",0
"1727",2.86725493059414e-06
"1728",0.370263733651316
"1729",1.09651953272838e-06
"1730",0.616541838848029
"1731",0
"1732",0
"1733",2.84428036678719e-12
"1734",9.92555878820411e-07
"1735",0
"1736",0
"1737",0
"1738",0.0266038845026315
"1739",0.00480036547120033
"1740",0.0244320175404984
"1741",0.0113153831781337
"1742",0.000370624771799055
"1743",0
"1744",0
"1745",0.346698724296963
"1746",0.000124835951566649
"1747",8.11975373382623e-07
"1748",0.00634018345282494
"1749",0
"1750",1.01526509421745e-08
"1751",2.59570143157362e-13
"1752",0.3152148166314
"1753",0.288716635910566
"1754",8.41335001666721e-10
"1755",0.114943464987947
"1756",2.76427539014357e-06
"1757",1.07084059219886e-06
"1758",0
"1759",0.000363690185067211
"1760",0.000600387104688682
"1761",0
"1762",0
"1763",0
"1764",0
"1765",1.73583369900143e-10
"1766",0.0821023196491699
"1767",0.209831001043313
"1768",0.0029669322840653
"1769",2.9710234272784e-11
"1770",8.07947153624866e-09
"1771",0
"1772",7.38450726522899e-06
"1773",0.000931486011881644
"1774",0
"1775",0
"1776",0
"1777",0
"1778",0
"1779",0
"1780",4.12655981658627e-05
"1781",7.27823509238945e-08
"1782",0
"1783",0
"1784",0.000407305387847168
"1785",0
"1786",0
"1787",1.02964352599599e-08
"1788",0.000346685875715735
"1789",0.0344296901815367
"1790",7.18433967872301e-09
"1791",0.00133731503534817
"1792",0
"1793",0
"1794",0.466959192124728
"1795",0.246627110593109
"1796",0
"1797",4.0473469575808e-08
"1798",0.443438695697129
"1799",0.000332980181785514
"1800",0
"1801",4.78361571123465e-05
"1802",1.00812280745544e-09
"1803",0
"1804",0
"1805",0
"1806",0
"1807",2.28461760620746e-09
"1808",1.64657676382518e-09
"1809",4.48448819190261e-08
"1810",0.00832981179240055
"1811",0.188016338102545
"1812",0
"1813",0.0938370052977453
"1814",6.34465440407794e-07
"1815",0
"1816",0
"1817",3.5527136788005e-14
"1818",0.525124914640177
"1819",0.0776931949092955
"1820",0.0115871386064128
"1821",0.134922639662621
"1822",0.0994908180881795
"1823",0.204484874627304
"1824",3.44534764051829e-08
"1825",0.152610348411526
"1826",0.0759857228586038
"1827",0.17007662647979
"1828",0.650854771268063
"1829",0.00787363887107762
"1830",0.0956689479507248
"1831",1.32026006682828e-07
"1832",3.51946003637194e-05
"1833",0.00017633818548346
"1834",1.11022302462516e-16
"1835",0.18262788233413
"1836",0.00392897260193426
"1837",0
"1838",0.015224707252276
"1839",2.90353085519168e-06
"1840",0
"1841",0.0015245718979815
"1842",0.0195382134669498
"1843",0
"1844",0
"1845",0
"1846",0.416150468218451
"1847",0
"1848",1.11022302462516e-15
"1849",0.00156312460849695
"1850",0.0267813795083425
"1851",5.55111512312578e-16
"1852",0
"1853",0.000250068184243668
"1854",0.0152139884289432
"1855",0
"1856",3.89849803851261e-05
"1857",0.0846165611681233
"1858",2.62440343568038e-07
"1859",3.36416521573568e-06
"1860",0.0278765850926066
"1861",0.0344325728933216
"1862",0.101618736130512
"1863",3.30651506132984e-05
"1864",0.0430518479064956
"1865",0
"1866",3.67858283160105e-05
"1867",0.0924821449072615
"1868",0
"1869",6.39742333630178e-06
"1870",0
"1871",0
"1872",0.00170451776894431
"1873",4.13531253684596e-08
"1874",0
"1875",3.61044527608101e-13
"1876",0
"1877",0
"1878",0
"1879",0
"1880",0
"1881",0
"1882",0
"1883",0.054041882522291
"1884",0.000123342681843774
"1885",0
"1886",0.0138275355602712
"1887",0
"1888",0.207376545255858
"1889",3.367048237779e-06
"1890",5.001044023345e-11
"1891",5.62286570080506e-05
"1892",0.0106965600156229
"1893",0.0208686020808528
"1894",0.000735387784479014
"1895",0.0234644573495632
"1896",0
"1897",0
"1898",0.000555675363180574
"1899",0.0574901007494606
"1900",0
"1901",0.309995527742938
"1902",6.64114097048696e-10
"1903",0.000366447791919411
"1904",0.380004053136545
"1905",0.440102794196324
"1906",0.000455825617931005
"1907",0
"1908",0.148407024849997
"1909",0.00158109170461984
"1910",0.00531311988207339
"1911",0.0133812565638084
"1912",0.0703037541453697
"1913",0
"1914",0
"1915",0.0897532933721978
"1916",0.0507886569830087
"1917",0.762743284102741
"1918",0.752481514047257
"1919",0.0149156246494832
"1920",0
"1921",0
"1922",0
"1923",0
"1924",0
"1925",0
"1926",0
"1927",0
"1928",0
"1929",0
"1930",0.211320154716933
"1931",0
"1932",0
"1933",0.015231232191636
"1934",0.326719610265943
"1935",0.686692563134112
"1936",0.00300557653404254
"1937",0.466536292791275
"1938",0
"1939",0
"1940",0
"1941",0.161398819846878
"1942",0.283890409214292
"1943",0.0483710750035918
"1944",0.301632408962408
"1945",0
"1946",3.77475828372553e-15
"1947",1.95518883183698e-06
"1948",0.25220436662527
"1949",0.0239860041038841
"1950",0.331262308361034
"1951",0
"1952",0
"1953",6.2523164234829e-07
"1954",0.0365651473519157
"1955",0
"1956",0
"1957",0
"1958",1
"1959",0
"1960",0
"1961",0.118188861294417
"1962",0.0637097752984366
"1963",0.468505982099022
"1964",0.289814236933976
"1965",0.122852160035029
"1966",0.538866039081942
"1967",0
"1968",0
"1969",0.0310139135549358
"1970",0.0209306670183507
"1971",0.414413368366013
"1972",0.449513591035729
"1973",0
"1974",0
"1975",0
"1976",0
"1977",0
"1978",0
"1979",0.710758786025514
"1980",0
"1981",0.0665207016619381
"1982",0.629872834040681
"1983",0.278834523731817
"1984",0
"1985",0
"1986",0
"1987",0
"1988",0.180232965999632
"1989",0.475012598272966
"1990",0
"1991",0.326959182779095
"1992",0.000337294745703653
"1993",0.824327996909829
"1994",0.323528739624276
"1995",0.930616252239823
"1996",0.690167642126325
"1997",0.797137383132763
"1998",0
"1999",0
"2000",0
"2001",0
"2002",0
"2003",0
"2004",0
"2005",0
"2006",0
"2007",0
"2008",4.22910969577472e-08
"2009",0
"2010",0.505099856898109
"2011",0
"2012",6.06714678497156e-12
"2013",0.596126113797782
"2014",0
"2015",0.0102111230685235
"2016",0.0654783964263645
"2017",0.100102375900509
"2018",0.564552690585557
"2019",0
"2020",0.644379859510765
"2021",0.010248479780758
"2022",0
"2023",0.000287093625032653
"2024",0.808734262446808
"2025",0.930819715719418
"2026",0.848182132203765
"2027",0
"2028",0.951884440836339
"2029",0
"2030",0
"2031",0
"2032",0.582701181012448
"2033",1.57894438113093e-06
"2034",0.0455668324699701
"2035",0.0120773793607727
"2036",0.0849905289408135
"2037",0
"2038",0.844980077012741
"2039",0.193733177541784
"2040",0
"2041",0
"2042",0
"2043",0
"2044",0
"2045",0
"2046",0
"2047",0
"2048",0
"2049",0
"2050",0
"2051",0
"2052",0.0631559736978962
"2053",0
"2054",0
"2055",0
"2056",0
"2057",0
"2058",0
"2059",0
"2060",0.000947656643344952
"2061",0.000181535621361917
"2062",0
"2063",0
"2064",0
"2065",0
"2066",0
"2067",0
"2068",0
"2069",0.00592321515884831
"2070",0.000972032398130152
"2071",0.0382742044161041
"2072",0
"2073",0.134837679688955
"2074",0.510319450603983
"2075",0
"2076",0
"2077",0.0822593565904953
"2078",1.59232405039234e-10
"2079",0
"2080",2.9876101592663e-13
"2081",0
"2082",0.323999451624611
"2083",0.646679991880112
"2084",0
"2085",0
"2086",0.312131993409257
"2087",0.966231778530219
"2088",0.00309140142937925
"2089",0
"2090",0
"2091",0.0968992611784839
"2092",6.51909325695144e-05
"2093",2.6818445242327e-09
"2094",0.000115711617615588
"2095",0.047854359396041
"2096",0.164273484775731
"2097",0.0477527388130042
"2098",0.714537444579296
"2099",0.00448272937581984
"2100",0.0755551472039602
"2101",0.0675502137053314
"2102",0
"2103",0.0163798468878592
"2104",0
"2105",0
"2106",1.15777668008299e-07
"2107",7.07862657378655e-10
"2108",1.15678910894701e-10
"2109",0.00981441020804286
"2110",0
"2111",1.05716920794086e-05
"2112",2.55440113505756e-12
"2113",0
"2114",0
"2115",2.69162470090123e-12
"2116",3.18621490356108e-05
"2117",4.76419403951933e-05
"2118",3.40753844030317e-08
"2119",0.0792754670468951
"2120",0.000128681244638162
"2121",0
"2122",0
"2123",2.85672333855125e-06
"2124",0.0885135860196319
"2125",0.00115396781022026
"2126",0.00859268432713622
"2127",0.00036613996548418
"2128",1.77635683940025e-15
"2129",0.0296636677329495
"2130",0
"2131",3.4566782769474e-10
"2132",0.000435333737141774
"2133",0.053396615027846
"2134",1.57863005612047e-06
"2135",6.98344907457127e-08
"2136",0.492868244157584
"2137",0.180569057728617
"2138",0.0381563247570247
"2139",0.0407341380683187
"2140",0.875490853240607
"2141",0.00990786574206881
"2142",0.000100402399389576
"2143",0.0158904744781175
"2144",0.000401225940896643
"2145",0.00982664690776103
"2146",0.0637559001763303
"2147",0.101982780942509
"2148",5.54775540726471e-05
"2149",3.54879348130055e-10
"2150",0
"2151",0.00186262841484286
"2152",2.58052156334454e-05
"2153",9.41733630139829e-05
"2154",0.000757721411486112
"2155",3.33066907387547e-16
"2156",1.59096291252325e-07
"2157",6.78657130492866e-12
"2158",5.78104467069407e-05
"2159",3.76290665293766e-10
"2160",1.01120957718415e-07
"2161",0
"2162",0.00395571937021078
"2163",2.1099270772762e-06
"2164",0
"2165",2.7896150756046e-07
"2166",0
"2167",7.08873459931425e-08
"2168",6.17483331133428e-09
"2169",0
"2170",0.041015009789353
"2171",0.00144926868802742
"2172",0.107311912249358
"2173",0.000861389143210545
"2174",0
"2175",0.0103752537914532
"2176",0.0549320081445671
"2177",0.00338663529078598
"2178",0.220477081111614
"2179",0.00193243291161882
"2180",1.11022302462516e-16
"2181",0
"2182",0
"2183",0
"2184",0
"2185",0
"2186",0.0112884069969442
"2187",0
"2188",9.33586541407294e-13
"2189",0
"2190",2.84149443308124e-07
"2191",2.14815276677882e-09
"2192",0
"2193",0
"2194",4.39992486889196e-12
"2195",0
"2196",0
"2197",0.0491128360154641
"2198",0.000123714654418183
"2199",0
"2200",0
"2201",0
"2202",0.0289927759825011
"2203",0.53903786693132
"2204",0
"2205",0
"2206",0.00397776601047672
"2207",0.0129723839628567
"2208",0
"2209",0.671845676477396
"2210",0.262615440195034
"2211",0.014831681249903
"2212",0.16435247443779
"2213",0.00123652642341876
"2214",3.15483224989643e-05
"2215",9.87654402706539e-13
"2216",0
"2217",0.00357453465295876
"2218",0
"2219",0
"2220",0
"2221",0
"2222",1.88737914186277e-15
"2223",0.892951534780605
"2224",0
"2225",0
"2226",0.00556217207753218
"2227",0
"2228",0
"2229",0.340934383740725
"2230",0.00285750641405202
"2231",4.56236159962486e-11
"2232",0.00951314714677087
"2233",0.430531466608213
"2234",0.0507550680543424
"2235",0.135910275530196
"2236",0.00578642182774847
"2237",0
"2238",0
"2239",0.205927660774185
"2240",0.327032766713641
"2241",2.22044604925031e-16
"2242",0.0234297475077442
"2243",0.339940260035652
"2244",0.61962923338245
"2245",0.0183138355458804
"2246",0.27816090228765
"2247",0.14894488418255
"2248",0.174793944646963
"2249",0.0190451998529201
"2250",0.468140403055485
"2251",3.77475828372553e-15
"2252",0
"2253",0.480836776859242
"2254",0.0195414034934079
"2255",7.69158218643096e-05
"2256",0.973126659443349
"2257",0.00229999590142449
"2258",0.0235755097672236
"2259",0.479187786210088
"2260",0.539070858881337
"2261",0.243002537207938
"2262",0.000200884131158818
"2263",0.513129274821309
"2264",0.525505774064128
"2265",0.00221184245280603
"2266",0.137102339621828
"2267",0.00494186662910767
"2268",0.624951814849658
"2269",0.617246613895742
"2270",0.000283321027206962
"2271",0.245631293717923
"2272",0.0225403893137661
"2273",0.477775640551188
"2274",0.735236148745494
"2275",0.0110151181575195
"2276",0.000736456070702496
"2277",0.50057158858429
"2278",0.0153930257621891
"2279",0.656895544630528
"2280",0.0719522736324334
"2281",0.0039908374703832
"2282",0.50127751792319
"2283",0.291415506887769
"2284",0.0131596673970572
"2285",0.0150890772463861
"2286",0.175186986237831
"2287",0.00010957974467285
"2288",0.153350728335891
"2289",7.54113475847085e-05
"2290",0.402877692610884
"2291",0.000130245981904253
"2292",0.0327921235147679
"2293",0.00454588805596512
"2294",0.00382475443758035
"2295",7.30442373253481e-11
"2296",0.14930493097364
"2297",0
"2298",0.00160405888901261
"2299",0.0106650624499451
"2300",0.145622907454458
"2301",0.377191395133859
"2302",0.792107145223168
"2303",0
"2304",1.3607224926826e-06
"2305",0.017945548822745
"2306",0.0172984502466603
"2307",0.0544218195802878
"2308",0.493896701182447
"2309",0.00333567971446147
"2310",0.0519422355215999
"2311",9.13398644697416e-06
"2312",0.0308062711741615
"2313",0.0154873238545714
"2314",0.000120866842955314
"2315",0.019874734146185
"2316",0.000195051232704357
"2317",4.17591488860447e-05
"2318",0.187090216875455
"2319",5.12909936745132e-10
"2320",0
"2321",8.64233971099582e-05
"2322",0.000727369812946632
"2323",0.697024722796569
"2324",2.41386864163751e-07
"2325",0.50822860931628
"2326",0.000987815639112877
"2327",7.10796589364904e-08
"2328",0.0803086190828247
"2329",0.003870214726445
"2330",0.0427085661559787
"2331",0.252297599415948
"2332",3.0449712771885e-05
"2333",0.642481930128585
"2334",0.0402882062984244
"2335",0.0719597503030671
"2336",0.73419732677219
"2337",0.000153510058658601
"2338",0.00901111798965382
"2339",0.784763051408743
"2340",0
"2341",0.961348530494491
"2342",0.616886003803072
"2343",0.729935699908663
"2344",0.15201191050697
"2345",0.000773305355548315
"2346",0.0789303115938447
"2347",0.000135335230572631
"2348",0.0428467564477273
"2349",0.000191581445264433
"2350",0.869421041625755
"2351",0.514739410999185
"2352",0.00387713439653148
"2353",0.279462786728952
"2354",0.213464862203309
"2355",0.184369206579044
"2356",0.200456948463498
"2357",0.0131722163401188
"2358",0.258080474154686
"2359",0.21859248522768
"2360",0.0102555768184941
"2361",0.174208445904334
"2362",0
"2363",0.0872591192872199
"2364",2.19368967435685e-12
"2365",0.11970747557093
"2366",2.02141818606005e-06
"2367",0
"2368",0
"2369",0
"2370",0
"2371",0.643614234665424
"2372",0
"2373",0.917634732693035
"2374",0.168729488217464
"2375",0.0648446754916076
"2376",0.307312932655698
"2377",0.173010096137386
"2378",0.00889298965005825
"2379",0.0987503048236542
"2380",0.326324998145088
"2381",0.149145448278276
"2382",0.727316548650628
"2383",0.162357236140922
"2384",0
"2385",0.11233792623307
"2386",0.552723962676425
"2387",0.791321687473462
"2388",0.567925291167149
"2389",0.998353026793316
"2390",0.492521932335689
"2391",0.372730472197703
"2392",0.722981052433692
"2393",0.00624562007111995
"2394",0.403065134863364
"2395",0.721676565190003
"2396",0.435735793624049
"2397",0.996530838231226
"2398",0.0516368987357126
"2399",0
"2400",0
"2401",0.362599154433113
"2402",0
"2403",0.334954718245615
"2404",0.178375576262361
"2405",1.0230985744597e-05
"2406",0.18489470686589
"2407",0.00207144046923802
"2408",0.000566732387244806
"2409",2.56457100000773e-09
"2410",0.000119869572591136
"2411",0.00235403992435956
"2412",1.8819390490421e-12
"2413",0.135680072882428
"2414",6.0858825312593e-08
"2415",0.00435419072569743
"2416",3.64473902170204e-08
"2417",2.19995631711711e-08
"2418",0.00161710620244904
"2419",3.01985588480047e-06
"2420",5.91266036131799e-08
"2421",0
"2422",0.723519928237701
"2423",8.88308561153295e-08
"2424",8.80200071101678e-05
"2425",0.714549793465771
"2426",0.0249375609476735
"2427",0.774917130136541
"2428",0.882830575293754
"2429",0.762132030958334
"2430",0.0301341552966623
"2431",0.360293584694398
"2432",0.676219330380073
"2433",0.939598629400191
"2434",0.045499443528527
"2435",0.630618576244329
"2436",0.00222362655287289
"2437",0.432159621332537
"2438",0.41034563445288
"2439",0.708371082162657
"2440",0.842237268744824
"2441",0
"2442",0.259165838521397
"2443",0.631826693849097
"2444",0.842741717262466
"2445",2.13318251951478e-12
"2446",0
"2447",0.845832121468754
"2448",0.158698957755655
"2449",0.0121341786047189
"2450",0.642976397315274
"2451",0.421087200930805
"2452",0.186036098862673
"2453",0.0199688603202521
"2454",0.0901113854365045
"2455",0.912200354377726
"2456",0.452323324503517
"2457",0.143238153603702
"2458",0.262271536634209
"2459",0.0632129793407274
"2460",0.880675849395916
"2461",0.881555989105234
"2462",0.0962177036723671
"2463",0.661493777528724
"2464",0.432070609864384
"2465",0.0460633200647625
"2466",0.000722608931524649
"2467",0.657546631839621
"2468",0.0635769917168738
"2469",0.000551353062269055
"2470",0.846832163813691
"2471",0.605567830750436
"2472",0.397988244353942
"2473",0.572108026371327
"2474",0.184343165881921
"2475",1.46336326820595e-05
"2476",0.974471809007026
"2477",0.225764187050725
"2478",0.637897340767114
"2479",0
"2480",0.0121744918157052
"2481",0.0325846287465408
"2482",0.23352118571995
"2483",0
"2484",0.523048141229215
"2485",0.707662045447036
"2486",0.958793770300148
"2487",0.0598031470995312
"2488",0.291394126360496
"2489",0.036536640649485
"2490",0
"2491",0
"2492",2.05225081917337e-06
"2493",0.0384115499166577
"2494",2.82683478529666e-05
"2495",0.908115131318135
"2496",1.19169519796625e-06
"2497",2.65962751822002e-09
"2498",3.33066907387547e-15
"2499",0.150451687859943
"2500",0
"2501",0
"2502",1.67104008408359e-09
"2503",1.20503607092814e-12
"2504",6.18763928983412e-11
"2505",4.43382449542007e-05
"2506",0
"2507",4.71844785465692e-14
"2508",3.14337444962121e-12
"2509",1.03455577438183e-10
"2510",0
"2511",2.97988803632521e-08
"2512",0.00378063000945339
"2513",0.000149048681414854
"2514",3.68400242456435e-05
"2515",7.15031212017436e-09
"2516",1.00405239678025e-11
"2517",1.04322225746856e-07
"2518",0.000281941460208213
"2519",1.3729617442948e-10
"2520",3.34143157587619e-10
"2521",6.07736083679811e-13
"2522",0
"2523",0.00641421593807356
"2524",0
"2525",6.912914685131e-12
"2526",1.48778994679688e-08
"2527",1.65731298442662e-05
"2528",1.11022302462516e-16
"2529",1.00511110545654e-08
"2530",6.71906974503145e-13
"2531",6.68057831276769e-10
"2532",0
"2533",0
"2534",1.76357262127169e-10
"2535",0.00278351197301174
"2536",3.35672134532672e-09
"2537",4.74452073961906e-07
"2538",0.00367316532620965
"2539",4.17792689333396e-10
"2540",6.3726801613484e-14
"2541",0.000101052023512405
"2542",5.09201902865186e-10
"2543",1.24372878662626e-09
"2544",6.2093172639166e-06
"2545",8.26812440735125e-09
"2546",1.23778409744091e-09
"2547",1.51488667432531e-06
"2548",4.33497682195139e-12
"2549",6.11241346426539e-09
"2550",1.10478293180449e-12
"2551",2.13689066441702e-11
"2552",3.68368903758132e-06
"2553",1.74228087512773e-09
"2554",2.14162021450193e-12
"2555",1.15802292199874e-08
"2556",3.33066907387547e-16
"2557",7.62723217917483e-14
"2558",2.47913051198978e-08
"2559",5.79758707766054e-05
"2560",9.48348165552559e-07
"2561",7.47169781600832e-09
"2562",7.19624162481836e-08
"2563",3.11639603012281e-13
"2564",0
"2565",0
"2566",0
"2567",0
"2568",0
"2569",0
"2570",0
"2571",0
"2572",0
"2573",0
"2574",0
"2575",0
"2576",0.209247062902555
"2577",0.224071155071675
"2578",0
"2579",0
"2580",0
"2581",1.40605134905103e-05
"2582",0.0722012204319519
"2583",0
"2584",0
