"","x"
"1",2.50285370984038e-07
"2",0.0998919495030461
"3",0.254839175151038
"4",6.32844401327048e-08
"5",0.291281556226826
"6",0.00366735515148697
"7",0.370739249415525
"8",1.04773411080394e-06
"9",0.343148358529093
"10",0.0233861975688693
"11",0.00196570873407398
"12",0.075260711429524
"13",0.291643346333002
"14",0.247308998129706
"15",3.88578058618805e-15
"16",0.000105096433649643
"17",0.000867225223339041
"18",0
"19",3.43034356942162e-06
"20",0.000150050374523092
"21",0.124806634025791
"22",0
"23",0.163694715607886
"24",0.262242246422195
"25",0.65177819471708
"26",0.901178489772676
"27",0.0559180657779899
"28",0.0852757502115777
"29",0.0648873226880812
"30",6.23490148399242e-12
"31",8.04023514433538e-13
"32",0.0387573336542646
"33",0.0840473962872408
"34",0.305759824687672
"35",3.3144448097322e-05
"36",0
"37",1.0904235292486e-09
"38",5.63183379931331e-08
"39",0.223585490531574
"40",0
"41",0.188410065171528
"42",0.00846260053723569
"43",0.360968581066241
"44",5.16881204504216e-10
"45",8.31864943595662e-09
"46",5.38858862364489e-05
"47",0
"48",0.117430249780574
"49",7.7016327726831e-05
"50",0.0417768820686666
"51",0.412000351677337
"52",0.262893986669206
"53",0.00400911814616622
"54",0.156639477341925
"55",0.000385904333905507
"56",0.265231022650447
"57",0.113678178715444
"58",2.98011615385008e-11
"59",0.196043674311181
"60",0.0105732818477965
"61",0.0661690221497684
"62",0.00121476984093072
"63",3.00529600574251e-05
"64",0.00887568912142378
"65",0
"66",0
"67",0.00541736490587663
"68",1.05746420508979e-08
"69",5.96189764223709e-14
"70",0.00107552369740893
"71",3.8642779977005e-06
"72",0
"73",0.0238889293483729
"74",1.27675647831893e-14
"75",3.86134295093932e-07
"76",7.2057726452357e-10
"77",0.573008419720129
"78",3.03231670728543e-06
"79",0.00128142437010348
"80",0
"81",0
"82",1.084021761244e-12
"83",0.217801909799699
"84",0.858945890499975
"85",0.402530855182753
"86",0.0111454897021134
"87",0.237550364391358
"88",0.00453595805259521
"89",0.557705417064978
"90",0.356569239666658
"91",0.0043209377261737
"92",0.00246230845950868
"93",0.0364109018926876
"94",0.284308531971844
"95",0.145438910481288
"96",0
"97",0.192087624114174
"98",0
"99",8.74744721102161e-12
"100",0.000367824285841256
"101",0
"102",1.42774680966795e-13
"103",0
"104",0.0161646127184942
"105",3.09752223870419e-14
"106",1.69253944193315e-10
"107",0.076013001154734
"108",0
"109",1.11022302462516e-16
"110",0
"111",0
"112",0.258254711593365
"113",1.99840144432528e-14
"114",9.08836225166354e-08
"115",0
"116",8.97157093093792e-06
"117",4.05279219850563e-07
"118",0
"119",0.0767597486045476
"120",0.345695623400006
"121",1.18771659174399e-12
"122",0.376166527816032
"123",0.755679273042025
"124",0.00494207574628835
"125",0
"126",0
"127",0.264006525514753
"128",0
"129",0
"130",0.0655089057459339
"131",1.00987606175273e-05
"132",0.00372408616968245
"133",0.0100563170824617
"134",0
"135",0
"136",0.0973845248301087
"137",0.00355887428729007
"138",0.133490185999709
"139",0.0293455591252143
"140",0
"141",6.581180045373e-12
"142",3.90798504668055e-14
"143",8.86973383629197e-10
"144",0.229164035976585
"145",0.00249938199258859
"146",0.00196957036706613
"147",0.0256078029617651
"148",0.0491388533129649
"149",0.000201044028457886
"150",0.000130722500853442
"151",0
"152",0
"153",0
"154",0
"155",1.11022302462516e-16
"156",7.33857419277228e-14
"157",0
"158",0
"159",0.436407335062489
"160",0.434414363660366
"161",0.0972531896819893
"162",0
"163",0.00558541536056589
"164",0.000578008148115261
"165",0.358520575140763
"166",0.896901339129227
"167",0.397575943896114
"168",0.339434073883367
"169",0.00049528469461213
"170",0.175998633252887
"171",0.0504363686614993
"172",0.354102420581717
"173",0.447839011537478
"174",0.837663504809328
"175",0.219708721996744
"176",0.405023983284208
"177",0.00704802320535913
"178",0.0515527822940349
"179",0.313912957683548
"180",0.113378693852189
"181",0.0100752676481544
"182",0.074594313674277
"183",0.0497292581412764
"184",0.477910897367673
"185",0.0481288328851244
"186",0.262853496443637
"187",0.30455142735365
"188",0.0738783524288813
"189",0.436547913078423
"190",0.643383981861949
"191",0
"192",0
"193",0.13835758358471
"194",0.00191162939970968
"195",0.00782867637114326
"196",0.212366065029104
"197",0.00861902758549804
"198",0.00150248463549219
"199",0.0178796584647321
"200",0.117710146349194
"201",0.718076951424937
"202",0.29859806681305
"203",0.403956348682399
"204",0.023513656758311
"205",0.16605784012887
"206",0.0119757349713119
"207",0.0466895052377783
"208",0.388552722148216
"209",0
"210",0
"211",0.000418527044053429
"212",0.0168579116212384
"213",0.687559729703131
"214",0
"215",0
"216",0.319762385490783
"217",3.5536062080066e-05
"218",0
"219",0.0189965069547622
"220",0
"221",0
"222",6.38697797372689e-06
"223",0.652292726747167
"224",0
"225",0
"226",5.04035702064698e-11
"227",0.0259747967256282
"228",9.32587340685131e-15
"229",0
"230",0.0100400262202625
"231",0.0226042125952018
"232",0.0105398694851651
"233",0
"234",0
"235",0.0842377870556639
"236",0.000287537582435493
"237",0.000142234342373149
"238",0.0586472134838765
"239",0
"240",6.93959127350263e-05
"241",0
"242",8.4881406303694e-07
"243",0.0155896217065274
"244",0
"245",0
"246",8.75525088910312e-05
"247",0
"248",0.0111077869988414
"249",0
"250",1.70419234279962e-13
"251",0.000198330878996789
"252",0
"253",3.90017695917066e-09
"254",1.03549697705319e-08
"255",0.00719977695994334
"256",0.0136824609852698
"257",0.00437137924038244
"258",4.73867937111905e-08
"259",0
"260",9.38394817406873e-09
"261",1.23041132837898e-10
"262",4.42862591654158e-05
"263",5.83209394888762e-06
"264",0
"265",2.09296557862615e-09
"266",0
"267",3.5307693362685e-05
"268",3.76365605347928e-13
"269",0
"270",0
"271",1.49324996812084e-13
"272",5.49381278913685e-07
"273",0
"274",0
"275",0
"276",0
"277",4.10782519111308e-15
"278",0
"279",0
"280",0.00347059895567603
"281",1.41664507902206e-08
"282",4.09254630184819e-08
"283",1.11022302462516e-16
"284",0
"285",1.33226762955019e-15
"286",0
"287",0.000851988646494717
"288",5.51690582106801e-10
"289",0.000742960786926594
"290",6.52059517491921e-11
"291",3.40838468559923e-14
"292",2.08097381548811e-07
"293",0
"294",4.85389506366118e-12
"295",0
"296",0
"297",7.42502015427249e-09
"298",1.11022302462516e-16
"299",0.00313050206864385
"300",0
"301",3.5543457066467e-11
"302",3.13193915246757e-13
"303",0
"304",0
"305",0
"306",0
"307",0
"308",0
"309",0
"310",3.16598984473337e-07
"311",0
"312",1.43337901857832e-05
"313",1.34606548130023e-10
"314",2.81542036351112e-06
"315",1.36950309178596e-05
"316",3.14302674886413e-07
"317",8.02381606701541e-06
"318",3.10729220132089e-12
"319",0
"320",3.7958439280672e-08
"321",4.54116066972432e-09
"322",4.15548168097857e-08
"323",3.96268896507568e-06
"324",1.87230314585562e-07
"325",2.14155492961332e-06
"326",0.00386333017105911
"327",2.35376648316521e-06
"328",9.85531656283456e-11
"329",1.25743551659951e-06
"330",7.26201488040479e-05
"331",4.82713868876772e-12
"332",0.00027311116540496
"333",9.32387500540699e-12
"334",1.39844956374979e-05
"335",3.79797126937031e-06
"336",0.000102544279234285
"337",9.56891232917201e-11
"338",0
"339",4.98720710284672e-08
"340",0
"341",0
"342",0
"343",3.85802501057242e-13
"344",2.14768980377755e-10
"345",0
"346",0
"347",0
"348",3.21350606979909e-06
"349",4.81547135500193e-10
"350",0
"351",0
"352",7.4820617549376e-05
"353",2.69563491096525e-05
"354",9.64813718473678e-07
"355",0.00101784135071714
"356",4.50876767821295e-05
"357",2.59117181755641e-06
"358",1.77814119872721e-07
"359",0
"360",1.80769243884882e-06
"361",2.88697266093152e-09
"362",2.94945876944119e-07
"363",0
"364",0
"365",0
"366",0
"367",1.56552548702393e-12
"368",0.239627542048801
"369",0.36021815161013
"370",0
"371",0.0702986518620475
"372",0.0212507088772222
"373",0
"374",0.150650252651433
"375",0.0639005733190545
"376",0
"377",0
"378",0.100359717675095
"379",0.322412894469285
"380",0
"381",0
"382",0
"383",0
"384",2.70247811129387e-07
"385",0.00178225024273426
"386",6.95443702625198e-13
"387",3.88868662265507e-05
"388",0.327575343289662
"389",0.781623414005293
"390",4.64423893675736e-06
"391",0.0122727897417362
"392",0.243857361354378
"393",0.334291617849474
"394",0.0739247890387829
"395",0.000332358390336518
"396",0
"397",0.00203645308392308
"398",9.60856423857237e-05
"399",0.264402688430316
"400",0.300719979810894
"401",0.00271930007158927
"402",3.30140693276526e-05
"403",0.984471806487322
"404",1.79856129989275e-14
"405",9.60616942780046e-06
"406",0.00100897569457037
"407",0.456997469181519
"408",0
"409",0
"410",0.324250233675359
"411",0.00381933726390593
"412",0
"413",0
"414",0.0158273269517254
"415",1.28092772370136e-05
"416",0.554189852937206
"417",0.650281124625706
"418",0.324446277153184
"419",0.253616066341954
"420",0.277658565810423
"421",0
"422",0.000276867849281381
"423",0.0537593969232486
"424",0
"425",2.35048203123256e-10
"426",0.536761842423933
"427",0.00145123841460904
"428",0
"429",0
"430",0
"431",0
"432",2.74385822951473e-08
"433",0
"434",0
"435",0
"436",2.80521073037221e-09
"437",4.67383083593287e-05
"438",0
"439",0
"440",0
"441",1.8712813854016e-08
"442",2.87189184314807e-05
"443",0.0186811651873201
"444",0
"445",0
"446",0.000487731668807778
"447",3.11861647617206e-13
"448",0
"449",0
"450",0
"451",1.12572795529786e-09
"452",0
"453",5.90279849368436e-05
"454",0
"455",0.00030324972722795
"456",0.00114856498700699
"457",0
"458",0
"459",1.39831479728514e-11
"460",0.0270599999290309
"461",0
"462",0
"463",0.0588565441847991
"464",0
"465",0
"466",2.31390462346326e-10
"467",0
"468",0
"469",0
"470",0.000129014875800748
"471",0
"472",0
"473",0
"474",0
"475",0
"476",1.21902488103842e-12
"477",0
"478",0
"479",0.0949976919089129
"480",0
"481",0
"482",6.66133814775094e-15
"483",0
"484",0
"485",0
"486",0
"487",0
"488",0
"489",0
"490",0
"491",0
"492",0
"493",0
"494",0
"495",0
"496",6.20614670765463e-14
"497",0
"498",0
"499",0
"500",0
"501",6.56741327986765e-12
"502",0
"503",0
"504",0
"505",0
"506",0
"507",0
"508",0
"509",0
"510",0
"511",0
"512",0
"513",0
"514",0
"515",0
"516",0
"517",0
"518",0
"519",0
"520",0
"521",0
"522",0
"523",1.77745262952556e-10
"524",0
"525",0
"526",0
"527",0
"528",0
"529",0
"530",0
"531",0
"532",4.6020964816762e-12
"533",3.95631305494248e-11
"534",1.45482696630728e-05
"535",0
"536",0
"537",0
"538",1.11022302462516e-16
"539",0.000264237508952658
"540",0
"541",0.00063020045231732
"542",1.88517756960493e-10
"543",0.0319946136320078
"544",0
"545",0
"546",0
"547",0
"548",0
"549",0
"550",0
"551",1.57850010840122e-09
"552",1.0244293787709e-06
"553",0
"554",0
"555",0.00828532633668433
"556",1.99470030726179e-06
"557",5.60542280703125e-07
"558",0
"559",0
"560",0
"561",0.402217795934238
"562",0
"563",0
"564",0
"565",0
"566",7.66053886991358e-15
"567",0.0478535661215803
"568",1.33226762955019e-15
"569",0
"570",1.51623546835733e-05
"571",0
"572",0.106634071660112
"573",0.25422406296418
"574",0
"575",0
"576",0
"577",4.05608097997501e-07
"578",0
"579",0.000930055670827712
"580",0
"581",0
"582",0
"583",0
"584",0.0201859221945394
"585",0.201689982206854
"586",0.197385903592595
"587",0.162253200633125
"588",0.451043107511783
"589",0
"590",0
"591",0.0980564586027787
"592",0.0357724474265969
"593",0.481692995317061
"594",2.06710289053502e-05
"595",0.0367016758308245
"596",0.055141230844712
"597",0.000337072307484809
"598",0
"599",0.0997217575065702
"600",0.0012226617149812
"601",0.115861228521991
"602",0.141865674645568
"603",0.404361230447162
"604",3.51233166587805e-05
"605",0.541388555856499
"606",0.00401322798442794
"607",0.160240983870994
"608",8.15852266372596e-05
"609",0.50817445310871
"610",0.000321262169447278
"611",0.451495182464339
"612",0.00265628572791543
"613",0.00516969956303914
"614",0
"615",0.0363994275092079
"616",0.0816366701821682
"617",0.300715193509359
"618",6.41653564011913e-05
"619",0.0629079805102206
"620",2.27377543867702e-05
"621",0.000177840777163651
"622",0.0874658388093317
"623",1.58845822939568e-07
"624",0
"625",8.19565637577568e-09
"626",0.124810031809175
"627",0.187409621739256
"628",0.52226938201684
"629",0.897858963200271
"630",0.011856246755066
"631",0.684554992000074
"632",0.453176531546476
"633",0.000192962120833307
"634",0.0118712427483847
"635",0
"636",0
"637",0
"638",0.131731957306847
"639",0.072435561450064
"640",8.81169581745667e-11
"641",0.000248853436091934
"642",0
"643",0
"644",0.00250628006186759
"645",1.06668229027385e-07
"646",0.00260737172150904
"647",0.282283746681447
"648",0
"649",0.0355102799480757
"650",0.0145191485810148
"651",0.00362238242090895
"652",3.56554874514359e-09
"653",2.4829301962237e-06
"654",0
"655",2.19313456284453e-12
"656",0
"657",0
"658",0
"659",0
"660",0
"661",0.18533797392533
"662",0
"663",0
"664",0
"665",2.58764458438421e-06
"666",0
"667",0.000186338139752107
"668",0.00162726517028866
"669",0.000118526024394772
"670",0.000398060260188182
"671",0.0645609890271771
"672",3.73034936274053e-14
"673",0
"674",0.0137042514429706
"675",0.179906599376453
"676",3.27515792264421e-14
"677",0.0233043582756215
"678",0.0674792928127973
"679",0.686580561931446
"680",0.0391048696511701
"681",0.64277233171141
"682",0.28231630643908
"683",0.00289276247421455
"684",0.0703538095309164
"685",0.228890148726095
"686",0.0185660567307626
"687",1.11022302462516e-16
"688",3.32738051556092e-08
"689",0
"690",1.20042088396222e-05
"691",0
"692",0.104163747806109
"693",0.246247718384432
"694",0.228999714752533
"695",0.407115140119954
"696",0.00470415631330112
"697",0.0270642987808475
"698",0.0718462891521748
"699",0.508841439714965
"700",0.0477146010700007
"701",0.00537572949716281
"702",0.294052615995107
"703",0.449679525763601
"704",0.144865050833778
"705",0.259360096814812
"706",0
"707",0
"708",0.000222755788670148
"709",1.50733058479346e-07
"710",0.80507059392471
"711",0.00956966769012146
"712",0.245389603694429
"713",0.630327671050338
"714",0
"715",0
"716",0.319487217716173
"717",0.482235285599106
"718",0.0120154924077415
"719",0.224568984991193
"720",0.0123137744384356
"721",0
"722",0.794069835871111
"723",0.701417381761686
"724",0.000175808660285992
"725",0
"726",0
"727",0.779331697960341
"728",0.0181461145205071
"729",0.318201536207791
"730",0.00416688761000061
"731",0.451085727212228
"732",0.0397585022877019
"733",0.318988587539724
"734",0.737328486525939
"735",0.686407434688606
"736",0.477192928433894
"737",0.334798837551407
"738",0
"739",0.100678887397955
"740",0.110799484232251
"741",0.153379774045444
"742",0.978089845800157
"743",0.527696878216719
"744",0.0375972620239627
"745",0.396755170441488
"746",0.821811221898124
"747",0.228293449857009
"748",0.375016141826216
"749",0.00925877974816003
"750",0
"751",3.10294156613544e-06
"752",0.813026943226897
"753",0.000575210318513708
"754",0.240181303992752
"755",0.664080188303021
"756",0.0837098705926427
"757",0.891891094733431
"758",0.0174202060608847
"759",0.608102878413634
"760",0.113755556086804
"761",0.0570483681588094
"762",0.587512227206572
"763",0
"764",0.000513820774908247
"765",0.428951006552923
"766",0.409175198134794
"767",0.150152415363759
"768",0.0140507897034585
"769",1.39953604261223e-11
"770",0
"771",0.00117604497548685
"772",0.444509970199595
"773",0.00308294204220982
"774",0.000161266525520953
"775",1.10741877890064e-08
"776",0.00175060325976983
"777",0.113024908614715
"778",0
"779",0.000576149149242533
"780",8.68531232754988e-05
"781",0.000963579291055283
"782",0.000272629831683524
"783",0.680744698767751
"784",0.116804942503711
"785",0.000752899949113428
"786",0.324445019171762
"787",0.00849589318542776
"788",0.0569429613481024
"789",5.31090904587472e-09
"790",0.00461476264776062
"791",1.60992884942202e-05
"792",0.560734337446278
"793",0.00309363769832061
"794",0.155437573302915
"795",0.000655526000317153
"796",0.0233375108196832
"797",0.212371006606653
"798",0.0284972916464603
"799",6.81643657485242e-06
"800",0
"801",3.09354314986798e-06
"802",0
"803",0.864550193209107
"804",0.175073867078303
"805",0.296468287734146
"806",0.368678666400128
"807",0.0747322774973608
"808",0.509878213726314
"809",0.0629434412182415
"810",0.0705069091593487
"811",1.59872115546023e-13
"812",0
"813",0
"814",0.0225878994538462
"815",0.00220974820116882
"816",0.984697044189649
"817",0.00738862222056458
"818",0
"819",0
"820",0
"821",0
"822",1.77635683940025e-15
"823",0
"824",0
"825",0
"826",1.71831437967285e-11
"827",5.1920912014225e-11
"828",4.55058657422569e-10
"829",0.48025807671306
"830",1.11022302462516e-16
"831",0
"832",0
"833",0.0457401408133338
"834",1.32111566131243e-09
"835",0
"836",0.833495144942431
"837",0
"838",0
"839",0.175446168766862
"840",2.59126053947512e-13
"841",0
"842",0
"843",1.11022302462516e-16
"844",0
"845",0
"846",0
"847",0
"848",0
"849",0
"850",0
"851",0
"852",0
"853",0
"854",0
"855",0
"856",0
"857",0
"858",0
"859",0
"860",0
"861",0
"862",2.22044604925031e-16
"863",0
"864",0
"865",0.213047502150762
"866",0
"867",0
"868",0
"869",4.84403566591851e-07
"870",1.81969439516649e-10
"871",0
"872",2.76556555434126e-13
"873",0.015081780559312
"874",0
"875",0
"876",0
"877",0
"878",0
"879",6.00715747589575e-07
"880",0
"881",0
"882",0
"883",0
"884",0
"885",0
"886",1.87007076490886e-11
"887",0.0120594844285254
"888",0.118222413400995
"889",3.70452035713953e-09
"890",0.0122838908281619
"891",0
"892",0.345591899038938
"893",0.670806329959017
"894",0.434709179329758
"895",0.396807550064273
"896",0.85840144880817
"897",0.323990461450135
"898",0.976914010563801
"899",8.88178419700125e-16
"900",0.316968096925117
"901",0.147639407335155
"902",0.289996047343502
"903",0.352508222508852
"904",0
"905",0.0710016926152277
"906",0.000683950983551562
"907",0.467971757982692
"908",0.000691415526582251
"909",0.0262242671972115
"910",0.0462299003098759
"911",0.251579477159477
"912",0.0283472817554978
"913",0.00818732035291447
"914",0.624902107379277
"915",0.297040857017052
"916",0.0957993481975682
"917",0.00156014085138478
"918",0.549136579191237
"919",0.00646102079238864
"920",0.315730501817367
"921",0.0561717178711489
"922",0.0847215654646951
"923",0.855398888741896
"924",0.774352198453359
"925",0.280615609274178
"926",0.00572346319083583
"927",0.0525656682076467
"928",0.102439819638109
"929",0.0184986091160459
"930",0.0751700543427294
"931",8.87738625976464e-06
"932",0.00400229073216718
"933",0.250979716396974
"934",0.0354579738866233
"935",0.80436112665484
"936",0.0517152933673622
"937",0.222399469077102
"938",0.128976747184056
"939",0.00639374597690356
"940",0.205999149327535
"941",0.352047301508823
"942",0
"943",8.43769498715119e-15
"944",0
"945",0
"946",0
"947",0
"948",0
"949",1.13153930669796e-12
"950",9.39803790345195e-13
"951",1.95399252334028e-14
"952",0.318058996329834
"953",6.11286576912562e-11
"954",0.203240023810798
"955",0.0215447222173187
"956",4.1649831039603e-07
"957",6.47621178906377e-10
"958",5.95110870060811e-06
"959",0
"960",0.0135862687962024
"961",1.61659156283633e-07
"962",0
"963",1.58838260877481e-07
"964",0
"965",0.950748499510692
"966",0
"967",0
"968",0.829763671424468
"969",0.198260753375324
"970",0
"971",6.29387572836926e-07
"972",1.18860104053597e-05
"973",0
"974",0
"975",2.26708399483355e-05
"976",0.00783143012603937
"977",0.17044021437563
"978",8.96851481968497e-11
"979",4.92669639529097e-08
"980",1.57922007804068e-07
"981",0.0737898164178168
"982",0
"983",0
"984",0
"985",0
"986",6.19133406765116e-08
"987",0
"988",0
"989",0
"990",0
"991",0
"992",0
"993",0
"994",2.08330858786354e-06
"995",0
"996",2.07657291362295e-09
"997",0
"998",0
"999",0.00668421829660582
"1000",0.326739309416251
"1001",3.33066907387547e-16
"1002",7.93744181493139e-09
"1003",6.93903520199157e-07
"1004",0.00996546913206664
"1005",0.000695209827903276
"1006",0
"1007",0.0197249344657399
"1008",0.080002809399972
"1009",2.11363679193388e-05
"1010",7.105427357601e-15
"1011",0
"1012",0.000188479914485007
"1013",0.00991212571850075
"1014",0.000134552329882243
"1015",0.177748141606044
"1016",2.39977707372496e-07
"1017",0.00226754896548742
"1018",1.10074171999486e-11
"1019",0.0464546225075413
"1020",1.11022302462516e-16
"1021",0.0059596997440261
"1022",0.0301996529656023
"1023",0
"1024",0.0193736178269536
"1025",0.00402137373876776
"1026",0.262403984481947
"1027",1.19182441693511e-12
"1028",0.033210480751506
"1029",0.254983185835445
"1030",0.280565373204116
"1031",0.389387413190724
"1032",0.593898763998563
"1033",0.719104704315117
"1034",0.622222691641022
"1035",0
"1036",0
"1037",0.0724506234368508
"1038",0
"1039",0.000218879197288913
"1040",0
"1041",0.452430007433134
"1042",0.633346321560323
"1043",0.896315994519864
"1044",0.00616924253737017
"1045",0.761836431991444
"1046",0.000718390228005683
"1047",0
"1048",0
"1049",0
"1050",0
"1051",0
"1052",0.00040431518690065
"1053",0.638344211854926
"1054",0.340968964151444
"1055",0.841935447077028
"1056",0.0213564613243866
"1057",0.820669436823804
"1058",0.0696222667985127
"1059",0.612888437860998
"1060",0.0156642803514364
"1061",0.949794201780638
"1062",0.848850885560732
"1063",1.04765265240836e-07
"1064",0.754774136692446
"1065",0.337411596632906
"1066",0
"1067",0
"1068",0
"1069",1.00315122704142e-05
"1070",0
"1071",6.69686528453894e-13
"1072",0
"1073",0
"1074",0.975345602990733
"1075",0.746168865919396
"1076",0.00833428918893786
"1077",0.510244028746105
"1078",0.230314189214512
"1079",0.00406503807048086
"1080",0.0117156624877551
"1081",0.135796417557567
"1082",0.00358494268492837
"1083",0.541333038965869
"1084",0
"1085",4.44089209850063e-16
"1086",0
"1087",0.21066589870375
"1088",0
"1089",0.466964146094202
"1090",0.536476283507022
"1091",0.140087169341399
"1092",0
"1093",0
"1094",0.372006396759001
"1095",0.0887437074358661
"1096",0.955705343385556
"1097",0
"1098",0.000175411536512793
"1099",0.512334999802844
"1100",0.595640656889483
"1101",0.22048820595575
"1102",0.0746166328115814
"1103",0.383797808051692
"1104",0.0168981961245197
"1105",1.21280763210052e-12
"1106",0.31521134256556
"1107",4.88498130835069e-15
"1108",0
"1109",0
"1110",0.029438496999744
"1111",0
"1112",0.872976409085037
"1113",0.496049339398505
"1114",0.55480620969485
"1115",0.219835485887188
"1116",0
"1117",0
"1118",0
"1119",0.425468554542644
"1120",0.389900878132064
"1121",0
"1122",0
"1123",0.275082859191141
"1124",0.660960066152736
"1125",0.604167239745089
"1126",0.450199797165986
"1127",0.0131660087113787
"1128",0.000119380945739378
"1129",0.083148663955247
"1130",0.0310010450582809
"1131",0
"1132",0.697065937594859
"1133",0.000123275202866147
"1134",0.842695886447544
"1135",0.505290861620158
"1136",0.0033094820576518
"1137",0
"1138",0
"1139",0.479092149741267
"1140",0.020028059383287
"1141",0.015271564587253
"1142",0.206323737461337
"1143",0.0168495825002907
"1144",0.0618972970507974
"1145",0.0707990220180137
"1146",0
"1147",7.27709044134883e-07
"1148",0
"1149",0.45901402589955
"1150",0.164357821736361
"1151",0.065776660932171
"1152",0.845990452397164
"1153",0.794270585177491
"1154",0.00930575603617401
"1155",0.0367710522100639
"1156",0.0583637908652401
"1157",0.00338660500982968
"1158",3.7362865635715e-05
"1159",0.357145764937177
"1160",0.0217550769809307
"1161",4.16153971949385e-07
"1162",0.00620379334399945
"1163",0.498929730452087
"1164",0.00377370976226199
"1165",0
"1166",0
"1167",0
"1168",0
"1169",0
"1170",0
"1171",2.72704081538677e-12
"1172",2.8466118351389e-12
"1173",4.54488332433112e-05
"1174",2.22044604925031e-16
"1175",0
"1176",0.702109539841862
"1177",0.0020990164682867
"1178",3.26155317253995e-06
"1179",0
"1180",2.71982436572671e-12
"1181",0.754179998232179
"1182",0.00273697055782562
"1183",9.69557053170922e-05
"1184",0
"1185",0
"1186",0.80165433173079
"1187",0.725281858665272
"1188",0.826917701240339
"1189",0.252111196351378
"1190",0.0774066112771258
"1191",0.572862452586976
"1192",0.265559344836573
"1193",0.448706207661168
"1194",0.00126759376137242
"1195",0
"1196",0
"1197",0
"1198",0
"1199",0
"1200",0
"1201",0
"1202",0
"1203",0.00229413711308268
"1204",0.00082841214239926
"1205",0.00025052250068458
"1206",0
"1207",0
"1208",0
"1209",0
"1210",0.100680522032722
"1211",0.281569633784643
"1212",0.000389613332836269
"1213",0.0601832709448916
"1214",4.23777239584311e-05
"1215",0.408350969634094
"1216",0
"1217",0
"1218",0.000736587782464437
"1219",0
"1220",0
"1221",0
"1222",0
"1223",0
"1224",0.00806316800817186
"1225",0.0508935658724904
"1226",0.00694132925393454
"1227",0
"1228",0
"1229",0
"1230",0
"1231",0
"1232",0.509373612442867
"1233",0.000395907832605458
"1234",0
"1235",0.149441548708299
"1236",0.17762342286429
"1237",0.0191573711358157
"1238",0.103579318160152
"1239",0.292093769892854
"1240",0.0100451665327437
"1241",3.00103608630309e-10
"1242",0.096681864814181
"1243",0
"1244",0
"1245",0
"1246",0
"1247",0
"1248",0.0588909704548952
"1249",0.101652458398442
"1250",0.0467847755967032
"1251",0.137099107943083
"1252",0
"1253",0
"1254",0.0119360349990966
"1255",0.906288453822557
"1256",0
"1257",0
"1258",4.21523897564668e-07
"1259",0
"1260",0
"1261",0
"1262",0
"1263",2.82451839694886e-12
"1264",0
"1265",0
"1266",0.00207819883271032
"1267",0
"1268",0
"1269",4.72402295059737e-09
"1270",0
"1271",0
"1272",0.0704193321853603
"1273",0.246205030991811
"1274",0
"1275",0
"1276",0
"1277",0.612396274271536
"1278",0
"1279",0
"1280",0
"1281",0
"1282",3.07661579689311e-05
"1283",0
"1284",0
"1285",0
"1286",2.46542041004716e-07
"1287",0
"1288",0.16839568276472
"1289",0.0243037172222973
"1290",0.083579731447361
"1291",0.314609936007787
"1292",0.104961173492574
"1293",0.615239466860184
"1294",0.0200323186522247
"1295",0.405483499460346
"1296",0.0217737951056854
"1297",0.0216835645513496
"1298",0.060524649950867
"1299",0.367270858499492
"1300",0.310425710300752
"1301",0.030729935667413
"1302",0.629649380378482
"1303",0.457421623206485
"1304",0.0766516030679373
"1305",0.000509811974658825
"1306",0.0306186210930801
"1307",4.54018047018057e-05
"1308",0.94595210972351
"1309",0.307622983669148
"1310",0.915782621256222
"1311",0.444995964283327
"1312",0.308812353597861
"1313",0.361614527106802
"1314",0.815247766344123
"1315",0.543739852367943
"1316",0
"1317",0.679318846032091
"1318",0.0957877535687355
"1319",0
"1320",0
"1321",0.678916519686601
"1322",0.0423060082657146
"1323",0.552143728904031
"1324",0.658285614812082
"1325",0
"1326",0
"1327",0
"1328",0
"1329",0
"1330",0
"1331",0
"1332",0
"1333",0.0753239408779932
"1334",0
"1335",0
"1336",4.07921559619773e-06
"1337",0.0242898717698971
"1338",0.435361594826543
"1339",0.000229711791396747
"1340",0.00244620097213732
"1341",0.0017739991378487
"1342",0.18100709958736
"1343",1.35780275911657e-13
"1344",1.05000844319303e-06
"1345",4.94696728026156e-10
"1346",0
"1347",0.000880861363226959
"1348",0.442636080018776
"1349",0.0370477844339975
"1350",2.38233566063339e-06
"1351",0.00952007905871655
"1352",5.26878835227507e-06
"1353",0.0258940417179671
"1354",0
"1355",0.108040713948978
"1356",0
"1357",0
"1358",0.27237911519787
"1359",8.15846257218311e-09
"1360",3.60496972717783e-07
"1361",0
"1362",0
"1363",4.23340140720541e-10
"1364",0.00558527987011603
"1365",0.0228956995495874
"1366",4.63522734639454e-08
"1367",0.438728226836284
"1368",2.36598911573793e-08
"1369",0
"1370",1.9193980627108e-08
"1371",0.0262439608991982
"1372",0
"1373",0
"1374",0.024594632531162
"1375",0.0518393290030829
"1376",0.000370852347944428
"1377",0.048471149618849
"1378",0.0481152333214244
"1379",4.3577363939562e-12
"1380",0.518969095894235
"1381",0.476297599377254
"1382",0.000319658022277625
"1383",0.0929186961152605
"1384",0.367904793612578
"1385",0.0788839437101712
"1386",0.0810039996521692
"1387",0.00154456296944983
"1388",0.0136585550968127
"1389",0.18108290897753
"1390",0.0332267855751562
"1391",0
"1392",0
"1393",3.47503137376748e-11
"1394",0
"1395",0.78446039786998
"1396",0.0154817139493811
"1397",0.179036315631763
"1398",0.00900203921638876
"1399",1.1300526514546e-08
"1400",0
"1401",0
"1402",0.0419432405731793
"1403",0.0789422316273465
"1404",0.426241520401095
"1405",0.298356249257657
"1406",0.186752103057545
"1407",0.0803846097799374
"1408",0.0163134632742707
"1409",0.0982112113849056
"1410",0.45424537554171
"1411",0.0452034072340296
"1412",0.0862991397822628
"1413",0.100517461883695
"1414",0.0393009553423789
"1415",0
"1416",0.273334514334273
"1417",0.0931069676758931
"1418",2.35752343202833e-08
"1419",0.0817360315457798
"1420",0.0422369328457748
"1421",0.867594738055342
"1422",0.00479519783429716
"1423",7.14983627858601e-13
"1424",0.0259979077564588
"1425",0.0029629538811643
"1426",0.165553891208025
"1427",0.220536081534827
"1428",0.0422532114359156
"1429",0.422241417306997
"1430",0.269734979369968
"1431",0.892975947465386
"1432",0.000920850717335053
"1433",0.781746521966254
"1434",0.0734717815540908
"1435",5.75867968698462e-05
"1436",0.518570637616271
"1437",0.0226637082802728
"1438",0.21062623536179
"1439",0.119998255384238
"1440",0.124792521584808
"1441",0.0282825808714575
"1442",0.000738900674224219
"1443",2.76816394904067e-05
"1444",0.80596789655879
"1445",0.832820249572078
"1446",0.133874313707727
"1447",0.00554047594799068
"1448",0.0450679451463881
"1449",0.957197189847475
"1450",0.437366663922662
"1451",0.0114870285117434
"1452",0
"1453",0
"1454",0
"1455",0
"1456",0
"1457",0
"1458",0.340258994335989
"1459",0.0773589213105813
"1460",0.436327037875736
"1461",0.0566367456206823
"1462",0.75882970927261
"1463",0.95416044951288
"1464",0.00735104408121112
"1465",0.820381670978432
"1466",0.219045731836716
"1467",0.702174440317292
"1468",0.000541665818712955
"1469",0.103205170522175
"1470",0.937735000283912
"1471",0.577796004396734
"1472",0.0482356486602963
"1473",0.0701077372821326
"1474",0.0029090931327389
"1475",0.105162248592929
"1476",0.0832984613022323
"1477",0.192797817298207
"1478",5.0448845101414e-10
"1479",0
"1480",0.680335642577194
"1481",0.219829595856441
"1482",0
"1483",0.167384853727204
"1484",0.012648560001798
"1485",0.399280128973872
"1486",0.665815335729478
"1487",0.0891927521337809
"1488",0.0141862100569634
"1489",0
"1490",0.591715005516686
"1491",0.176363267656631
"1492",0.628748202817269
"1493",0.0134132494966899
"1494",0.0466447869203034
"1495",0.454267053811844
"1496",0.568388756282191
"1497",5.23844994543277e-05
"1498",0.50889623483902
"1499",0.0103662266293473
"1500",0.47719415667077
"1501",0.0516273812573871
"1502",0.296013788787457
"1503",0.00365679191706159
"1504",0.140767287925665
"1505",0.54098617442724
"1506",0
"1507",0
"1508",0
"1509",0.227942376895982
"1510",0.0277490211178841
"1511",1.82081504873643e-07
"1512",0.335935362002886
"1513",0.89253179454744
"1514",0.00946733369920438
"1515",0.0665539862283586
"1516",0.00587120940314467
"1517",0.00909077220593002
"1518",0.0135501967295883
"1519",0.60512169727402
"1520",0.539669252535417
"1521",0.0064978811706643
"1522",0.007469807803823
"1523",0.260397184107561
"1524",0.082074176731189
"1525",0
"1526",0
"1527",0.0126836286300248
"1528",0
"1529",0
"1530",0.366964927253932
"1531",0
"1532",0
"1533",0
"1534",3.44169137633799e-15
"1535",3.37596617328018e-12
"1536",0
"1537",1.68549783485794e-06
"1538",8.85185224400731e-05
"1539",0
"1540",0
"1541",8.08353384229576e-13
"1542",0
"1543",0
"1544",0.00736502680049067
"1545",0
"1546",0
"1547",0
"1548",0
"1549",0
"1550",0
"1551",0
"1552",0
"1553",0
"1554",0
"1555",0.0367836862073474
"1556",0
"1557",0.0175359130934806
"1558",7.10929239587932e-05
"1559",0.44996447759757
"1560",0
"1561",0
"1562",0.899610100105817
"1563",0.0603480589955819
"1564",0.0918065526742977
"1565",0
"1566",0
"1567",0.00277575321267209
"1568",0
"1569",0
"1570",0
"1571",4.44089209850063e-16
"1572",0.242799632983376
"1573",6.24283377403945e-06
"1574",0
"1575",0
"1576",0
"1577",0.00147914985206854
"1578",0.000566182225830381
"1579",0.29963168025777
"1580",0.0622187181559926
"1581",0.50650379436087
"1582",0.253547007780475
"1583",0.138704157042007
"1584",0.635535399550821
"1585",0.00558894213019834
"1586",0.073384320571569
"1587",0.0741921656533315
"1588",0.145038018742339
"1589",0.0449317039057481
"1590",0.587334025148945
"1591",0.0196660349718555
"1592",0.520505241057236
"1593",0.571270880801262
"1594",0.803907963437339
"1595",0.0189790406161855
"1596",0.282642939167404
"1597",0.0326424112761401
"1598",0.0814925302459411
"1599",0.245342474518121
"1600",0.0162839060363641
"1601",0.409889693544941
"1602",0.142493555825641
"1603",0.0035899149712415
"1604",0.0167057876396229
"1605",0.650909915200987
"1606",0.0235272355286074
"1607",0.32468539296715
"1608",0.00112177823847259
"1609",0.924998501384109
"1610",0.394126333792778
"1611",0.0107798402638221
"1612",0.450871106806319
"1613",0.995540010508464
"1614",0.528316345387213
"1615",0.150075908636731
"1616",0.516814993529976
"1617",0.225464535870896
"1618",0.401567502957686
"1619",0.935331348401644
"1620",0.761884826742674
"1621",0.163314351252429
"1622",5.09881319166183e-07
"1623",0.129934788796509
"1624",0.988257645579164
"1625",0.353437832775319
"1626",0.199800381085658
"1627",0.264432542523778
"1628",0.152368675229213
"1629",0.0358383808326773
"1630",0.00143413727576847
"1631",0.455482434091115
"1632",0.144059987288457
"1633",0.108486672164902
"1634",6.03217475969586e-12
"1635",0
"1636",0
"1637",0
"1638",1.55502544174624e-09
"1639",0
"1640",0
"1641",0
"1642",0
"1643",0
"1644",0
"1645",0.00335344053553488
"1646",0
"1647",1.55431223447522e-15
"1648",0
"1649",2.71472844204368e-11
"1650",0.00385353654946485
"1651",0.028194386314208
"1652",0.00914371589047858
"1653",4.45155666495278e-06
"1654",0
"1655",0
"1656",0
"1657",0.226859955563924
"1658",0.730221264189955
"1659",1.03488650982086e-09
"1660",7.09340364224431e-11
"1661",1.19126930542279e-13
"1662",0
"1663",0
"1664",0
"1665",0
"1666",2.66453525910038e-15
"1667",0
"1668",0
"1669",0
"1670",0
"1671",2.90928392487899e-11
"1672",0
"1673",0
"1674",0
"1675",0.547252830440275
"1676",2.09086081781606e-11
"1677",3.25295346215171e-14
"1678",0.298998114173283
"1679",0.000297199945099802
"1680",0
"1681",0
"1682",0.033196184439625
"1683",1.89188480437252e-08
"1684",0
"1685",1.43574352728937e-06
"1686",0
"1687",0
"1688",5.55111512312578e-16
"1689",0.00640029288276356
"1690",3.09364542439017e-06
"1691",0
"1692",0
"1693",0.000371577608529794
"1694",0
"1695",0
"1696",0
"1697",0
"1698",0
"1699",0
"1700",0
"1701",1.72920200894877e-05
"1702",0
"1703",0
"1704",1.40998324127395e-14
"1705",0
"1706",0
"1707",0
"1708",0
"1709",0
"1710",2.67210698012832e-11
"1711",0
"1712",0.000102767515002822
"1713",0.105975049935887
"1714",0.328356364215282
"1715",3.62529701258829e-07
"1716",0
"1717",2.25375273998907e-14
"1718",0
"1719",0
"1720",0
"1721",0.0452319016204041
"1722",1.3819156929884e-10
"1723",0.000894139411558692
"1724",0
"1725",0
"1726",0
"1727",0
"1728",0.516278919003547
"1729",3.99680288865056e-15
"1730",0.000206899207018552
"1731",0
"1732",0
"1733",0
"1734",4.55796800413744e-07
"1735",0
"1736",0
"1737",0
"1738",1.87129022465315e-05
"1739",0.0082495491341662
"1740",0.510177408419678
"1741",0.0011665463834345
"1742",0.00304950510001711
"1743",0
"1744",0
"1745",0.333012637228029
"1746",0.475288926080426
"1747",0.141442272643326
"1748",0.159745969450825
"1749",0
"1750",7.16560144553569e-12
"1751",3.33066907387547e-16
"1752",0.230055728934165
"1753",0.674231272841717
"1754",2.1094237467878e-15
"1755",0.00023984333361915
"1756",2.22044604925031e-15
"1757",5.42020761606921e-10
"1758",0
"1759",0.0136513032537562
"1760",0.274532790119368
"1761",0
"1762",0
"1763",0
"1764",0
"1765",0
"1766",2.30897039266154e-08
"1767",0.00121059192187667
"1768",0.0171009560202477
"1769",0
"1770",6.09512440519211e-14
"1771",0
"1772",1.04727337912891e-12
"1773",3.36055676031233e-06
"1774",0
"1775",0
"1776",0
"1777",0
"1778",0
"1779",0
"1780",2.2216672945774e-12
"1781",0
"1782",0
"1783",0
"1784",0.000275245212047026
"1785",0
"1786",0
"1787",8.99720298264128e-11
"1788",2.97766348245077e-08
"1789",0.0224839893177348
"1790",9.99200722162641e-16
"1791",1.86944423830049e-07
"1792",0
"1793",0
"1794",0.642497870161929
"1795",0.000787635661555486
"1796",0
"1797",0
"1798",0.87185636423743
"1799",0.0122522773824132
"1800",0
"1801",6.38118933338205e-06
"1802",1.39466216353412e-11
"1803",0
"1804",0
"1805",0
"1806",0
"1807",0
"1808",0.00956007370350787
"1809",5.88418203051333e-15
"1810",0.0134050268896084
"1811",0.87610191615642
"1812",0
"1813",0.684438875938797
"1814",2.66453525910038e-15
"1815",0
"1816",0
"1817",0
"1818",0.843841601046029
"1819",0.0931632983016314
"1820",0.109685021399406
"1821",0.00563267113409038
"1822",8.37873897538977e-05
"1823",0.303632610689083
"1824",3.92736176912933e-10
"1825",0.630073302097903
"1826",0.840640915399328
"1827",0.088679035616978
"1828",0.266133051603454
"1829",0.0141467311259694
"1830",4.92393820761272e-06
"1831",1.11022302462516e-16
"1832",1.70382332465024e-07
"1833",0.118847079675172
"1834",0
"1835",0.000146129557710983
"1836",0.000636955839481979
"1837",0
"1838",0.707863695822256
"1839",0
"1840",0
"1841",5.55753221220812e-11
"1842",2.52012053447714e-07
"1843",0
"1844",0
"1845",0
"1846",0.16602970166123
"1847",0
"1848",0
"1849",0.490147539315323
"1850",0.00373604286194995
"1851",0
"1852",0
"1853",4.14239753609991e-11
"1854",4.91474819219739e-06
"1855",0
"1856",2.24958902383943e-06
"1857",0.0232275565701145
"1858",0.014457276579124
"1859",0
"1860",0.644278453965226
"1861",0.208675215902417
"1862",0.739354428147076
"1863",0.154482842601259
"1864",0.167758794357622
"1865",0
"1866",0.112703083276869
"1867",0.29086921275923
"1868",0
"1869",0.365375066813453
"1870",0
"1871",0
"1872",0.760841121227135
"1873",0.228608392097704
"1874",0
"1875",0
"1876",0
"1877",0
"1878",0
"1879",0
"1880",0
"1881",0
"1882",0
"1883",6.04416258487284e-07
"1884",0.0761278794958491
"1885",0
"1886",2.44049179087824e-06
"1887",0
"1888",0.677776426728831
"1889",0.0396579266976689
"1890",0.00024857446791271
"1891",0.896089026548733
"1892",0.961794989189896
"1893",0.702640689396919
"1894",0.0559407213103154
"1895",3.91939704513788e-06
"1896",0
"1897",0
"1898",0.154042824541696
"1899",0.568426305529196
"1900",0
"1901",0.00585038052949693
"1902",0
"1903",5.04903190127193e-05
"1904",0.00127819256175155
"1905",0.692467250652624
"1906",5.44387966927573e-08
"1907",0
"1908",0.0203305114644129
"1909",2.43545661415823e-09
"1910",6.24505225310656e-10
"1911",0.000703834514609203
"1912",0.156845637288161
"1913",0
"1914",0
"1915",0.108374048143995
"1916",8.61627384384223e-05
"1917",0.664282036788465
"1918",0.399377980252566
"1919",1.86939814739162e-08
"1920",0
"1921",0
"1922",0
"1923",0
"1924",0
"1925",0
"1926",0
"1927",0
"1928",0
"1929",0
"1930",0.0126446011012504
"1931",0
"1932",0
"1933",0.00032630936564404
"1934",0.00778639237504186
"1935",0.0138403546241537
"1936",0.23036063069453
"1937",0.518202759299799
"1938",0
"1939",0
"1940",0
"1941",0.0536403165080224
"1942",0.10760951258319
"1943",0.000379257846792824
"1944",0.00703634861576818
"1945",0
"1946",0
"1947",2.19757434472001e-10
"1948",0.0152574807636393
"1949",0.00756581888680097
"1950",0.0339282594290791
"1951",0
"1952",0
"1953",7.12596648355657e-12
"1954",0.00226217965840259
"1955",0
"1956",0
"1957",0
"1958",0.999970871757686
"1959",0
"1960",0
"1961",0.0441737160345816
"1962",0.0649260109845065
"1963",0.00300515916164779
"1964",0.611555268604273
"1965",0.235591475802631
"1966",0.0648723941521463
"1967",0
"1968",0
"1969",0.0150832291573887
"1970",0.233353075240984
"1971",0.0772339956367469
"1972",0.00164374189659466
"1973",0
"1974",0
"1975",0
"1976",0
"1977",0
"1978",0
"1979",0.000503562328889484
"1980",0
"1981",0.00524802257605084
"1982",0.424683601025429
"1983",0.0353513728261463
"1984",0
"1985",0
"1986",0
"1987",0
"1988",0.00542693148592777
"1989",0.00255659333298208
"1990",0
"1991",6.0070745436569e-05
"1992",8.15669697784571e-07
"1993",0.0492446396606596
"1994",0.0594748135727935
"1995",0.46268036660613
"1996",0.28815344589045
"1997",0.676256499487512
"1998",0
"1999",0
"2000",0
"2001",0
"2002",0
"2003",0
"2004",0
"2005",0
"2006",0
"2007",0
"2008",1.11022302462516e-15
"2009",0
"2010",0.117851241966964
"2011",0
"2012",0
"2013",0.111308049302578
"2014",0
"2015",0.000168512813970234
"2016",0.152004138740105
"2017",0.00326203794253466
"2018",0.245873433898881
"2019",0
"2020",0.328504757333861
"2021",1.56484756386188e-06
"2022",0
"2023",5.0753562907957e-08
"2024",0.329723889416175
"2025",0.903925930289395
"2026",0.414784334017886
"2027",0
"2028",0.000977291452076257
"2029",0
"2030",0
"2031",0
"2032",0.000450845789801591
"2033",1.11022302462516e-16
"2034",1.17999154891635e-09
"2035",1.64104063671289e-10
"2036",1.15394556132742e-08
"2037",0
"2038",0.00701207700866147
"2039",0.00856624974240883
"2040",0
"2041",0
"2042",0
"2043",0
"2044",0
"2045",0
"2046",0
"2047",0
"2048",0
"2049",0
"2050",0
"2051",0
"2052",4.39927290656339e-05
"2053",0
"2054",0
"2055",0
"2056",0
"2057",0
"2058",0
"2059",0
"2060",1.8688709302328e-07
"2061",7.52171239959409e-07
"2062",0
"2063",0
"2064",0
"2065",0
"2066",0
"2067",0
"2068",0
"2069",3.92168963969652e-10
"2070",3.73701070088828e-13
"2071",4.60053541596617e-05
"2072",0
"2073",0.0836598988812047
"2074",0.0255378545293364
"2075",0
"2076",0
"2077",0.283374845898007
"2078",0
"2079",0
"2080",0
"2081",0
"2082",0.147300600253229
"2083",0.413029584433783
"2084",0
"2085",0
"2086",0.468719663035611
"2087",0.0428700574192451
"2088",0.000102042117630097
"2089",0
"2090",0
"2091",0.509791380700578
"2092",0
"2093",0
"2094",2.23744546190563e-05
"2095",0.0361866159635184
"2096",1.86803599835361e-05
"2097",0.0385511303155067
"2098",0.028615761324438
"2099",0.000663248712290621
"2100",0.015590508714911
"2101",1.38954792117119e-09
"2102",1.92068583260152e-14
"2103",1.50688354200179e-05
"2104",0
"2105",0
"2106",7.43849426498855e-15
"2107",0
"2108",0
"2109",1.63025102306591e-08
"2110",0
"2111",0.0107403199985776
"2112",0
"2113",0
"2114",0
"2115",0
"2116",5.60325319922672e-05
"2117",9.23412865472262e-05
"2118",4.28770686056179e-06
"2119",0.500536050162518
"2120",0.023047892402952
"2121",0
"2122",0
"2123",4.23272021543575e-07
"2124",0.0388307842483169
"2125",6.64212692350619e-05
"2126",0.482632041408001
"2127",0.0584960492911918
"2128",0
"2129",1.40060520847918e-07
"2130",0
"2131",0
"2132",8.87315488307117e-07
"2133",0.71314521352967
"2134",1.23904331239544e-10
"2135",0.0497371966283773
"2136",0.472615548362834
"2137",0.0891302526957883
"2138",0.121172290297785
"2139",0.0622985990930705
"2140",0.738644900770589
"2141",0.0406762516210383
"2142",0.0110518131464867
"2143",0.00137342955545294
"2144",6.46768053425006e-05
"2145",0.000194837366293443
"2146",0.0297694667957986
"2147",0.0819903743904998
"2148",0.043613835452549
"2149",0.000164696386195984
"2150",0
"2151",4.23469703063617e-05
"2152",1.63024882924301e-05
"2153",0.245983610695114
"2154",0.544923668756347
"2155",0.0120989435393444
"2156",0.121916240380704
"2157",1.71554395409501e-05
"2158",0.00206229207278463
"2159",0.00285552411145451
"2160",0.00668230494478683
"2161",0
"2162",0.000496231002281133
"2163",0.0143118690066327
"2164",0
"2165",4.50177256761108e-06
"2166",0
"2167",4.07407441116447e-12
"2168",0
"2169",0
"2170",0.000890136829884813
"2171",3.19696640271872e-08
"2172",0.00330712132203936
"2173",0.00215506403659182
"2174",0
"2175",0.742285226547163
"2176",1.91722035735031e-05
"2177",0.000263604420041141
"2178",0.192077181163018
"2179",1.00834122929161e-05
"2180",0
"2181",0
"2182",0
"2183",0
"2184",0
"2185",0
"2186",2.82210910196312e-09
"2187",0
"2188",0
"2189",0
"2190",0
"2191",0
"2192",0
"2193",0
"2194",6.39278252556608e-09
"2195",0
"2196",0
"2197",2.84953995810522e-06
"2198",1.63834008293229e-06
"2199",0
"2200",0
"2201",0
"2202",0.0120420126262529
"2203",0.0518423158401633
"2204",0
"2205",0
"2206",0.000298705909631547
"2207",0.00705667346207117
"2208",0
"2209",0.0313750087979623
"2210",0.0259170304139009
"2211",0.000457559960595488
"2212",0.312958951027416
"2213",1.67539315754084e-11
"2214",3.3074418093193e-08
"2215",0
"2216",0
"2217",6.18210371783334e-10
"2218",0
"2219",0
"2220",0
"2221",0
"2222",0
"2223",0.22115375438084
"2224",0
"2225",0
"2226",0.000141659858135412
"2227",0
"2228",0
"2229",0.596712983081985
"2230",0.00543976750228126
"2231",1.73822103710641e-06
"2232",0.639956750481976
"2233",0.120497799663882
"2234",0.0112461995438705
"2235",0.821618407010565
"2236",0.000147547673926218
"2237",0
"2238",0
"2239",0.0617287485348843
"2240",0.0265097822800658
"2241",0
"2242",0.0164802823829174
"2243",0.940677111343852
"2244",0.0328340800598304
"2245",0.0790272573716422
"2246",0.272117663643159
"2247",0.173240173324152
"2248",0.33320948701824
"2249",0.899850267593106
"2250",0.779996367280055
"2251",0
"2252",0
"2253",0.0308140079576898
"2254",0.0502733181268891
"2255",0.0420162767120533
"2256",0.290120543654843
"2257",5.21207945549662e-05
"2258",0.000169930577222477
"2259",0.493185872691051
"2260",0.078261110998045
"2261",0.0225860322332536
"2262",3.06644353124108e-05
"2263",0.411939966180507
"2264",0.828348809072313
"2265",0.0675863040691652
"2266",0.126357313873875
"2267",1.75715833644619e-05
"2268",0.0729595791118102
"2269",0.803669676242242
"2270",0.00185511057996413
"2271",0.617473999805561
"2272",0.364713296463815
"2273",0.668749186398492
"2274",0.103420424848742
"2275",0.000814170886135224
"2276",0.0466823168106346
"2277",0.829752431999077
"2278",3.82872962589875e-06
"2279",0.147898657069724
"2280",0.527660496725135
"2281",0.0537970811747879
"2282",0.815260390544902
"2283",0.36754276857995
"2284",0.0455017252904177
"2285",0.000648710075914161
"2286",0.0200429245894171
"2287",0.0868449100102063
"2288",0.0824041379417757
"2289",4.66980121238691e-10
"2290",0.0566722302884549
"2291",7.56618278996424e-05
"2292",0.16525267943232
"2293",0.54430565281997
"2294",0.000289319025248647
"2295",2.16027196131563e-12
"2296",0.270912695330936
"2297",0
"2298",2.83394616551469e-07
"2299",0.0758123959024302
"2300",0.130235409918644
"2301",0.314278320067304
"2302",0.487657554965809
"2303",0
"2304",1.07193520726412e-09
"2305",0.00612836696961017
"2306",0.0223950477936422
"2307",0.266383003470622
"2308",0.321938005576722
"2309",0.000731098802387975
"2310",0.229530004739732
"2311",3.28164162510802e-11
"2312",0.374492114337387
"2313",0.591490042729573
"2314",0.110449466513092
"2315",2.25847825818803e-06
"2316",5.03153074760121e-13
"2317",0.0510833609653919
"2318",0.524527860840362
"2319",7.87009198921496e-08
"2320",0
"2321",0.00170945035556314
"2322",6.06541949998984e-09
"2323",0.0546276296465427
"2324",0.000289381952293
"2325",0.614292881333846
"2326",0.624110007095438
"2327",1.30907178430562e-08
"2328",0.198332375242408
"2329",0.00691811799793618
"2330",0.225765833740193
"2331",0.477202912210034
"2332",0.0113848394861366
"2333",0.0989719683449033
"2334",0.0183401360246394
"2335",0.140022748966262
"2336",0.41638314613679
"2337",0.692854809798975
"2338",0.0195663665144234
"2339",0.382129488111013
"2340",0
"2341",0.492239635686833
"2342",0.317844685422584
"2343",0.0792931745395717
"2344",0.0197377463117402
"2345",0.00517721834258567
"2346",0.101948317134986
"2347",0.00192611003213239
"2348",0.00441859305522163
"2349",0.000403583237838401
"2350",0.927401790890115
"2351",0.273656840543036
"2352",5.97599747464983e-12
"2353",0.00396503067835396
"2354",0.36474312849171
"2355",0.0138151943100525
"2356",0.0502205568693932
"2357",0.00479825872929374
"2358",0.022370225960664
"2359",0.272449269343223
"2360",6.73721000643557e-05
"2361",0.433461220739019
"2362",0
"2363",0.00383549100337199
"2364",0
"2365",6.34684024990451e-05
"2366",0
"2367",0
"2368",0
"2369",0
"2370",0
"2371",0.0272698171707859
"2372",0
"2373",0.0346228886869978
"2374",0.139522733818688
"2375",0.0143791737209935
"2376",0.0289920314364297
"2377",0.0858948785756286
"2378",0.0609069828174901
"2379",0.113074390211211
"2380",0.979129219741101
"2381",0.380124394637368
"2382",0.00973538073167379
"2383",7.32989090910241e-05
"2384",0
"2385",0.0613902096150992
"2386",0.281698526720688
"2387",0.0919071272130757
"2388",0.0410328356004469
"2389",0.57960906525324
"2390",0.521678183274384
"2391",0.0829228746119101
"2392",0.436854263239709
"2393",2.03521536853435e-05
"2394",0.282596531253483
"2395",0.181953656988655
"2396",0.941466984410711
"2397",0.56632668756491
"2398",0.0209225385405991
"2399",0
"2400",0
"2401",0.0618555018986988
"2402",0
"2403",0.0814419838554907
"2404",0.344706670669717
"2405",1.74569602038321e-05
"2406",0.230931526520542
"2407",0.196079050851174
"2408",0.000674756999724746
"2409",2.82429635234394e-12
"2410",0.0913059248810231
"2411",0.287168496969353
"2412",0.000350134795819246
"2413",0.135114873351017
"2414",1.68296487856878e-11
"2415",0.00825435695849397
"2416",0.135584582056546
"2417",0.285536298045887
"2418",0.817289221794618
"2419",0.0187931178402987
"2420",0.000637277979172013
"2421",0
"2422",0.0337604364501863
"2423",0
"2424",4.33778013508856e-10
"2425",0.260381054612186
"2426",0.00441869488721136
"2427",0.0390774081021077
"2428",0.117824729578499
"2429",0.093115965848279
"2430",0.0035824932080365
"2431",0.784861058238366
"2432",0.0267146105454581
"2433",0.0465775403876542
"2434",0.0849627137533301
"2435",0.073549470737138
"2436",7.93978014782537e-05
"2437",0.16691315080559
"2438",0.0737269576799359
"2439",0.972155082792044
"2440",0.310000484446039
"2441",0
"2442",0.10799203147327
"2443",0.932472278019748
"2444",0.802568602293743
"2445",0
"2446",0
"2447",0.0472534374720508
"2448",0.318594969238876
"2449",0.243545770902758
"2450",0.0177468728383878
"2451",0.00467141185714981
"2452",0.0509714355341093
"2453",0.0210519887895211
"2454",0.385526026188147
"2455",0.578690831786303
"2456",0.422269072762849
"2457",0.000973811333201735
"2458",0.570208806508359
"2459",0.0120336469385555
"2460",0.326181029352335
"2461",0.102237049772089
"2462",0.00112477215405737
"2463",0.76913775698513
"2464",0.785245444409621
"2465",0.014352621158502
"2466",9.29811783123569e-13
"2467",0.920043511873452
"2468",0.0739383190177303
"2469",0.0680968552885629
"2470",0.0603131870309455
"2471",0.573785164231916
"2472",0.826250684846336
"2473",0.643355850764417
"2474",0.00434385391810099
"2475",3.90145693529576e-11
"2476",0.616121536880757
"2477",0.305413770508969
"2478",0.21311269595591
"2479",0
"2480",7.06805339034666e-07
"2481",0.00194498923108732
"2482",0.00721890507018419
"2483",0
"2484",0.145462680261671
"2485",0.440533218239709
"2486",0.825895874883686
"2487",0.222109961388219
"2488",0.00404257972034638
"2489",0.127849374501633
"2490",0
"2491",0
"2492",0.00389269630632083
"2493",0.015059321346407
"2494",0.000226963624220478
"2495",0.672966437620872
"2496",2.56969823198006e-09
"2497",1.25816135287948e-10
"2498",0.0564048833993855
"2499",0.347206818250482
"2500",0
"2501",0.174274366300938
"2502",0.012304980344874
"2503",0.0604640799052547
"2504",0.00194706763125818
"2505",0.0921433409179474
"2506",0.000366392579268182
"2507",0.000520530352100534
"2508",0.00163598504327278
"2509",0.0558097756814617
"2510",0
"2511",8.00438111274726e-05
"2512",0.562995281174197
"2513",0.00410569596108934
"2514",0.000504085600332993
"2515",0.000793889060102471
"2516",0.105012690743414
"2517",0.0481087899653778
"2518",0.756958102816447
"2519",0.0998479227830643
"2520",0.0557717319206347
"2521",0.0255270891428693
"2522",0
"2523",0.00254910729171809
"2524",0.0341821401354795
"2525",0.00735859443683273
"2526",0.0104939420687539
"2527",3.26477664336355e-05
"2528",0.0261840654678768
"2529",0.0485882228480614
"2530",0.00388060209005692
"2531",0.00362350474141893
"2532",0
"2533",0
"2534",1.9325874234255e-11
"2535",0.0525940627158613
"2536",0.623575271882687
"2537",0.449135828067468
"2538",0.677260164037149
"2539",0.15375401836071
"2540",0.242470915464426
"2541",0.118656450093479
"2542",0.65719742513326
"2543",0.121185514596436
"2544",2.00860528464242e-05
"2545",7.24165529513154e-05
"2546",0.0641947186374583
"2547",0.0921643223098072
"2548",0.0401091531537203
"2549",0.0141817116497283
"2550",0.129075028868211
"2551",0.0571393212948078
"2552",0.000154414701952765
"2553",0.000353624077632175
"2554",0.340903773903132
"2555",0.287989766849864
"2556",0.0899573276031737
"2557",0.00508202977781402
"2558",0.0277614103233152
"2559",0.0258120988647557
"2560",0.0345510540503301
"2561",0.102688427239109
"2562",0.27277056401279
"2563",4.72607579371509e-06
"2564",0
"2565",0
"2566",0
"2567",0
"2568",0
"2569",0
"2570",0
"2571",0
"2572",0
"2573",0
"2574",0
"2575",0
"2576",0.0073631443170179
"2577",0.0112635941073852
"2578",0
"2579",0
"2580",0
"2581",1.85343123071391e-08
"2582",0.116955161529083
"2583",0
"2584",0
