"","x"
"1",0.416012849812022
"2",0.00845808605249676
"3",0.419077173162189
"4",0.987990804311401
"5",0.0391212300822291
"6",0.0356064814598529
"7",0.821679075436274
"8",0.160620963004164
"9",0.536983175618874
"10",0.302457776596519
"11",0.0963417022725218
"12",0.743536951858113
"13",0.989404178024383
"14",0.180897179574953
"15",0.745064182452025
"16",0.366825511039127
"17",0.943021643552662
"18",0.48121028957232
"19",0.0932725799806217
"20",0.184849847287864
"21",0.682015002061281
"22",0.0245713254079416
"23",0.0618208819536962
"24",0.198700384565147
"25",0.811372924175837
"26",0.387994338050987
"27",0.0621523726175245
"28",0.364928779513221
"29",0.0857038579899251
"30",0.0893045728373935
"31",0.671788908398273
"32",0.43213374919322
"33",0.565003343934313
"34",0.221282632646848
"35",0.63512981468116
"36",0.00761794532032778
"37",0.88100237866162
"38",0.200205961282888
"39",0.724864068299976
"40",0.0208601470639594
"41",0.218431737052964
"42",0.0645756797131546
"43",0.67092467817024
"44",0.545772599360187
"45",0.388281476723205
"46",0.225928054062751
"47",0.0901395152093307
"48",0.127852630352167
"49",0.310788733128649
"50",0.680362653752587
"51",0.354680230306159
"52",0.247537013380215
"53",0.0571858666340324
"54",0.0904867706045162
"55",0.451753471108855
"56",0.0377065132214091
"57",0.331114430754865
"58",0.622383056426953
"59",0.0529610414282919
"60",0.23131031519376
"61",0.151450590257875
"62",0.176632459231067
"63",0.201348070749789
"64",0.485457908960805
"65",0.0793887826913591
"66",0.0669158250086073
"67",0.847614820792356
"68",0.265062010275803
"69",0.179426135312757
"70",0.51847641725363
"71",0.0082398405647568
"72",0.0882281656918275
"73",0.00888434053165965
"74",0.527405422427167
"75",0.663772199820287
"76",0.0621740496971288
"77",0.743948509431816
"78",0.0388941935980922
"79",0.605103479613348
"80",2.58484799786629e-07
"81",0.00234862546669057
"82",0.0570563171215434
"83",0.142306259109398
"84",0.343549251357163
"85",0.458032644263681
"86",0.464285608585874
"87",0.116658082829202
"88",0.853063433323225
"89",0.209360627648364
"90",0.662605872309554
"91",0.347315117692152
"92",0.14377416914304
"93",2.54890586761647e-05
"94",0.683792483447104
"95",0.000684861429129713
"96",0.0201661276020029
"97",0.657718360370034
"98",0.0782237058780249
"99",0.0413635252913938
"100",0.209204387588717
"101",0.000546248088977741
"102",0.25689730899366
"103",0.331826159839466
"104",0.00689666486445539
"105",0.0254253988755944
"106",0.00375284488606087
"107",0.341247398129102
"108",0.00128428527494084
"109",0.545068648045103
"110",0.234546082212902
"111",0.591768243732772
"112",0.751544617281166
"113",0.000837688039394879
"114",0.000752124080241057
"115",0.000919012886267612
"116",0.0945953815777183
"117",0.0191330544156966
"118",0.115697110521628
"119",0.000678718961344416
"120",0.148635990984334
"121",0.00896270079223016
"122",0.000267287379946635
"123",0.00106303994240042
"124",5.48009855338982e-06
"125",1.29030458762003e-07
"126",0.00589204662088738
"127",0.640526555604408
"128",4.98161844875167e-06
"129",0.0527531572913938
"130",0.0118069298221669
"131",0.00588482019008429
"132",0.0540865518078121
"133",0.0165292645148452
"134",0.00640198103289313
"135",0.00101995608317307
"136",0.392471629348626
"137",0.873497902655541
"138",0.790351967061353
"139",0.0318087729195218
"140",0.00228238842521744
"141",0.0356206499947862
"142",0.605267325990216
"143",0.331814563702286
"144",0.176499092961961
"145",0.00715384236524519
"146",0.0182110849971404
"147",0.0581810630119233
"148",2.02221093792421e-06
"149",0.97230075653059
"150",0.0627514506636659
"151",0.0565785970845859
"152",0.329660138951503
"153",0.56270725204627
"154",0.261094674584035
"155",0.184960752181142
"156",0.103199803603642
"157",0.190127419862819
"158",0.0371488630936417
"159",0.0121782428284588
"160",0.00320277711548245
"161",0.00601967607710918
"162",0.174878269930658
"163",0.367456405631184
"164",0.0450660130061823
"165",0.52071377245337
"166",0.233650766245311
"167",0.000194265076381206
"168",0.71633121979463
"169",0.473287683639989
"170",0.00868365286710571
"171",0.0394260760892158
"172",0.792959027286491
"173",0.844098439480009
"174",0.0923409720895052
"175",0.588880725364479
"176",0.179859995776972
"177",0.687627996708469
"178",0.0187938476856797
"179",0.464518625876846
"180",0.260938380665883
"181",0.349039539280914
"182",0.143937737005462
"183",0.0233430308688697
"184",0.0280847470386898
"185",0.362503773058349
"186",0.38250993955637
"187",0.00890387497480571
"188",0.0813687443430285
"189",0.213673110522044
"190",0.0256806516024414
"191",2.43813857991881e-11
"192",0.000418250257779973
"193",0.109824816825841
"194",0.0848524287982833
"195",0.716222443466439
"196",0.197784195295126
"197",0.633784957050183
"198",0.709445734302239
"199",0.0758085268208455
"200",0.49371077719909
"201",0.0117905244273377
"202",0.714400393062299
"203",0.881867494699793
"204",0.954602879733726
"205",0.842270839064476
"206",0.211912508963031
"207",0.974016081360395
"208",0.0451988070497592
"209",0.013489495589224
"210",0.025193575189885
"211",0.656631106374983
"212",0.0363914904650393
"213",0.0097769262437325
"214",0.00542514316696963
"215",0.0470751933987332
"216",0.0179815158082867
"217",0.798678861162991
"218",9.97091298415853e-13
"219",0.0143571418996449
"220",1.21956137111301e-06
"221",0.00299237884582382
"222",0.00106361524458642
"223",0.077129598336349
"224",0.476432756682504
"225",0.0864436242193767
"226",0.216272109960026
"227",0.0921041235422813
"228",0.256577279552571
"229",3.08530068974244e-05
"230",0.651394199129055
"231",0.401906005104198
"232",0.249553304325024
"233",0
"234",0.00983217409038772
"235",0.0319114059569939
"236",0.224193691312264
"237",0.279611474593179
"238",0.617520005377044
"239",0.00364589703605389
"240",0.658288671185069
"241",0.00256697909601922
"242",0.010440680438216
"243",0.0658060020168878
"244",0.01567570830678
"245",0.00658416188401534
"246",0.137355639862101
"247",0.0309771276755308
"248",0.0453021149034925
"249",3.37088650020911e-05
"250",0.0937651866597256
"251",0.0116739520279173
"252",9.93067231225275e-07
"253",0.00848110020594284
"254",0.917814427244052
"255",0.120385667325782
"256",0.377144978468942
"257",0.00243045028707367
"258",6.7579565173892e-06
"259",0.0974750573234384
"260",0.0398245925728299
"261",2.11300313035512e-06
"262",0.000236974669151735
"263",0.421324721060151
"264",1.63212640360566e-05
"265",0.00239386726503288
"266",3.14723750050039e-06
"267",0.000804875337112265
"268",2.70076961568222e-05
"269",0.0018549466522112
"270",0.0037832426781671
"271",0.026656983782624
"272",0.00351214788311582
"273",0.0153656052212894
"274",0.0146266182026666
"275",0.0142681997972873
"276",0.0493344609548434
"277",0.252026568590892
"278",0.0238896781679834
"279",1.3368008033865e-08
"280",0.439942684190447
"281",0.04659854532772
"282",0.00140566578248991
"283",0.0122833844359127
"284",3.64933612055918e-05
"285",0.010570409048366
"286",0.135023610326598
"287",0.414122797489926
"288",0.0809753437694966
"289",0.0106113961252335
"290",0.000851648234936997
"291",0.00807758567791217
"292",0.153151033405133
"293",0.000449282679004015
"294",0.0282612254896167
"295",0.0117262725976528
"296",0.00819247008495216
"297",7.40562031192882e-05
"298",0.000337462061200555
"299",0.0173736862309433
"300",0.00190325406794734
"301",0.00182067907436234
"302",0.00138316849280717
"303",0.0604866165364516
"304",0.0131364067396368
"305",0.176476060343621
"306",0.00437962755335863
"307",0.000338822194712707
"308",0.0230667303188556
"309",0.221442057800543
"310",0.852230135171028
"311",0.000302993971213472
"312",0.239406396776094
"313",0.239744673495715
"314",0.3511814723041
"315",8.98533754334352e-06
"316",0.0212249329612806
"317",0.675095784112083
"318",0.169985970571671
"319",0.023259645018763
"320",0.037583963658165
"321",0.466751541283156
"322",6.67059078308663e-05
"323",0.00914211883636762
"324",0.793579607985981
"325",0.0216432337197751
"326",0.514281954919931
"327",0.00671832074433787
"328",0.0243291236423053
"329",0.181767612237206
"330",0.0900694727517862
"331",0.136108451686934
"332",0.177440397302564
"333",0.000703433550534704
"334",0.00273374175607288
"335",0.0648473003777066
"336",0.204791048682597
"337",9.30315199204612e-05
"338",0.220849454884662
"339",0.450551318260511
"340",0.0911575929766918
"341",0.000584399813573278
"342",0.400804445251935
"343",7.09013648523271e-05
"344",0.345737254834229
"345",0.546711828336196
"346",0.000381673715890152
"347",0.00212369618046526
"348",0.0763747356432608
"349",0.0301948505383787
"350",0.618973049106431
"351",0.00468245487460339
"352",0.0764755252615105
"353",0.00473916053277323
"354",0.0129407548690192
"355",0.584072134662404
"356",0.217208088017981
"357",0.128809463512338
"358",0.08042462620103
"359",6.6628123753909e-05
"360",0.101526566397573
"361",0.0114508188095875
"362",0.114882537172187
"363",1.14436660147987e-09
"364",3.81328390423041e-05
"365",0.00280707508887867
"366",2.41102895426337e-08
"367",2.0092978996189e-05
"368",0.0126426886525928
"369",0.00630629901497004
"370",0.078743927947703
"371",0.0394429574225118
"372",0.474316456851338
"373",0.0160627514214507
"374",0.312182864742837
"375",0.000981944193769957
"376",6.23778140251829e-10
"377",0.146270165085291
"378",3.27550561940448e-06
"379",0.00738936634306209
"380",8.56820457140195e-07
"381",5.37564730231921e-05
"382",8.08392242035438e-11
"383",0.434823548243068
"384",0.00568380986159667
"385",0.183953987617247
"386",0.0148235438871215
"387",0.000556211071956469
"388",8.80458443819343e-07
"389",1.60317541638699e-05
"390",0.0365852143404577
"391",0.0200529338689761
"392",0.716815823698391
"393",0.000122099663532715
"394",0.00524865352562554
"395",0.000857997534623345
"396",0.000922044153044532
"397",0.0993398359392982
"398",0.00228021701257608
"399",0.629140248866432
"400",0.00767060349827764
"401",0.00966264844020703
"402",0.000166488642025509
"403",0.174082444649381
"404",0.0209450639459026
"405",0.0210385394630892
"406",0.0244374262016315
"407",0.456441458086481
"408",2.34284902367321e-07
"409",0.000354958717922238
"410",0.145077823061319
"411",0.497884256087912
"412",0
"413",0.00210979350435747
"414",0.295184395351551
"415",0.00480795281419466
"416",0.000229292779438062
"417",0.011145392962931
"418",0.100668547490365
"419",0.390586644869921
"420",0.507364749631198
"421",6.58120802299322e-09
"422",0.311372563593422
"423",0.324748649696489
"424",8.97609485628337e-08
"425",0.259513863552936
"426",1.38629980189764e-05
"427",0.0139891603980969
"428",1.07645968971948e-06
"429",0
"430",0.0376689783147737
"431",0.0152603910637644
"432",0.0713365592008762
"433",0.0123316766967533
"434",0.198449202273408
"435",0.0263760312845587
"436",0.000748115882035383
"437",0.266517124767217
"438",0.000870121707618243
"439",4.53496617714988e-05
"440",0.113084428709468
"441",0.0835329025378231
"442",0.0236185524888399
"443",0.0133559185413212
"444",1.07180477049162e-07
"445",0.42257690801516
"446",0.696878196820988
"447",0.741735289911314
"448",1.80203629795983e-11
"449",0.0456430948722593
"450",0.111265478233229
"451",0.217230124843064
"452",1.01546456798829e-08
"453",0.323773416924441
"454",0.000689490493388067
"455",0.897921575670006
"456",0.113493798924861
"457",9.5812247025151e-14
"458",0.0070777892653171
"459",0.312481263093271
"460",0.0107026586855435
"461",0.00529785944464656
"462",2.46403564219122e-10
"463",0.999999999999585
"464",0
"465",2.29182021200813e-05
"466",0.137361741838021
"467",2.79133184577507e-06
"468",7.0832228971085e-14
"469",1.52124979280188e-11
"470",0.219223408345475
"471",0
"472",7.1790778877201e-09
"473",4.82438075133373e-06
"474",4.44089209850063e-16
"475",4.71367599352845e-06
"476",0.00686647826451048
"477",1.79383952136902e-10
"478",3.79585252119341e-13
"479",0.154285270484011
"480",1.19988005053973e-06
"481",9.8431470973992e-08
"482",0.0347121746911105
"483",0.00424191358161918
"484",0
"485",2.70584443740063e-10
"486",2.69559479293413e-07
"487",1.22152476911275e-07
"488",0.00250010979183712
"489",2.12700706582192e-05
"490",7.56557039238714e-11
"491",0.160882780690547
"492",0.215619606202666
"493",0
"494",0.00258320346930763
"495",3.84556187738028e-06
"496",0.00191011966833532
"497",0.118783441028646
"498",7.84455075154566e-05
"499",0.747072227540464
"500",9.75181253526358e-08
"501",0.460924008360459
"502",0.0406485516162914
"503",1.2428406890308e-06
"504",0
"505",1.11022302462516e-16
"506",0.00176517426590661
"507",6.07558447995871e-12
"508",0
"509",0.0308784307456724
"510",5.43793188421127e-05
"511",2.84970180786104e-08
"512",4.69734251495879e-10
"513",0.00245193125445442
"514",9.03255693618377e-06
"515",0
"516",0.00125928359427352
"517",0.0403255614645294
"518",0.00778931409174732
"519",0
"520",0.000179235037168879
"521",0.000348223957361893
"522",0.121702968817439
"523",0.946150958783973
"524",9.07797011273637e-06
"525",2.55351295663786e-15
"526",0.00266216236727401
"527",0.0485476842128155
"528",4.32749136525246e-08
"529",0.0442405983848267
"530",0.000247561366258253
"531",1.65552733744079e-08
"532",0.023289746564797
"533",0.742179112656108
"534",0.0933477365174672
"535",0
"536",7.11422698529418e-10
"537",2.66453525910038e-15
"538",0.00476393428540856
"539",0.0341088533146737
"540",5.69377787584813e-07
"541",0.246731859061078
"542",0.19172664965481
"543",0.987210592490181
"544",0
"545",2.16713313960781e-09
"546",0.201114573321436
"547",5.11070618195442e-05
"548",0.301036798340622
"549",0.506714577745091
"550",0.00268110117421416
"551",0.0131478454669836
"552",0.000111428169175309
"553",0.00602326819233578
"554",0.272704500349901
"555",0.114096507919921
"556",2.85711051861703e-06
"557",0.0270774547328019
"558",0.554795917128403
"559",7.95912595830117e-08
"560",0.0184746691751593
"561",2.37597150543056e-06
"562",0.000392278606889063
"563",7.97578343292304e-05
"564",4.66041771840509e-09
"565",0.033296367615991
"566",0.000790028495811446
"567",0.00237076436411565
"568",9.64295234535673e-05
"569",2.67884851412603e-07
"570",0.941305614628886
"571",9.11493103217254e-14
"572",0.648472504860081
"573",0.361462508175118
"574",0
"575",2.53431999719389e-07
"576",9.08236255436901e-06
"577",0.00231535224121171
"578",2.29457453038151e-10
"579",0.0253393574293183
"580",1.08078665905786e-07
"581",0.00022758181930016
"582",0.00344706702609587
"583",3.93325776837372e-07
"584",0.00686480635894304
"585",0.000796688605456342
"586",0.00937485233585156
"587",0.477686150161384
"588",0.0567059843808866
"589",1.9550806553692e-06
"590",9.96205355430213e-07
"591",0.00232544875123197
"592",0.153597498350835
"593",0.0195246572518561
"594",0.00110663467953109
"595",2.58003577280341e-07
"596",0.00752350890370967
"597",0.0057144400343877
"598",4.16528300739571e-07
"599",0.0986141930164132
"600",5.66461602069523e-08
"601",0.079596960999274
"602",0.028860905747129
"603",0.000222613543765959
"604",0.0155135353339323
"605",0.00980467373807625
"606",0.0027441622397214
"607",0.00122426856586799
"608",5.70362779472866e-06
"609",0.000540954805989369
"610",0.000176771471506521
"611",0.000698292764970132
"612",0.226653871511623
"613",1.41451937134551e-05
"614",0.00045284784516253
"615",0.0122764020792547
"616",0.0011216754014618
"617",0.184638315676781
"618",0.106381696686427
"619",0.0286226167217563
"620",0.0102317587411569
"621",0.016921033926802
"622",0.0033214769790757
"623",0.140157482215091
"624",0.0218758686135655
"625",0.109501485413279
"626",0.0595590947648055
"627",0.148861770733723
"628",0.00340683254819285
"629",0.00539427055440478
"630",0.0483563708429493
"631",0.387211603057261
"632",0.0710550213722222
"633",0.000708170603250013
"634",0.201515775153853
"635",2.81371178911805e-07
"636",1.32191699996342e-05
"637",8.34291106144303e-05
"638",0.284160308927437
"639",0.240297058240953
"640",0.357965352080553
"641",0.0452738119235865
"642",0.00485111111355885
"643",0.0156344500369124
"644",0.493404729452628
"645",0.407108023644096
"646",0.789880812862796
"647",0.797575890856705
"648",2.38325560623087e-05
"649",0.117428515834171
"650",0.148983793114591
"651",0.0138271523503253
"652",0.000145919793728799
"653",0.818566732386134
"654",0.0109540716321519
"655",0.425891848884408
"656",0.0650040832254088
"657",0.558725294241641
"658",0.392910765649495
"659",0.391353490131633
"660",8.4114570390148e-05
"661",0.473223357728142
"662",0.757944896118728
"663",0.356791559362042
"664",0.0477089966586529
"665",0.161717725104006
"666",0.0018026123871927
"667",0.039515165371626
"668",0.410964884492587
"669",0.277782758381884
"670",0.0280969956307265
"671",0.0287004434731067
"672",1.93396579244443e-05
"673",2.17183936668253e-06
"674",0.0190913447831795
"675",0.0311297238653078
"676",1.65057215273379e-06
"677",0.140159442022358
"678",0.00285593973034071
"679",2.19878115714778e-09
"680",0.0160175231203864
"681",0.120640765785756
"682",0.000548959664021353
"683",0.160494677457056
"684",0.0220642124558955
"685",8.45636861679377e-06
"686",1.11022302462516e-16
"687",0.0104323286471358
"688",0.000648960096092943
"689",0.0187711062466718
"690",0.00017281080042153
"691",0.00184871212903059
"692",0.00660860377337569
"693",2.51120358951695e-08
"694",8.52162784781285e-12
"695",2.91456914158772e-09
"696",6.89259760378036e-12
"697",1.18511047308978e-07
"698",1.17857956727363e-09
"699",0.000239323128036983
"700",3.10085290777806e-12
"701",2.44249065417534e-15
"702",0.00144320357932537
"703",1.4432899320127e-15
"704",1.84205983799757e-11
"705",9.71333080634906e-09
"706",3.0186557697931e-09
"707",0
"708",0.128413543791094
"709",0.325979028673985
"710",0.722890466666673
"711",0.289315703672893
"712",0.370031825474484
"713",0.229971830374964
"714",1.69000873451175e-06
"715",0.0864995870521259
"716",0.691067519902166
"717",0.383582392321525
"718",0.939023753729799
"719",0.690626015191881
"720",0.450894061128205
"721",7.99360577730113e-15
"722",0.552869188502024
"723",0.842634770481125
"724",0.0131881101809196
"725",0
"726",0.0578679016810432
"727",0.0415857397119632
"728",0.478594074251733
"729",0.000659417191534284
"730",0.0593900740160943
"731",0.0781893097781841
"732",0.00904780769609981
"733",0.0615903084424085
"734",0.0313041721774618
"735",0.112611706174684
"736",0.00077032865511073
"737",1.42069918529497e-06
"738",8.98783745686416e-05
"739",0.000890216475039174
"740",0.00253733145138202
"741",6.18932489228063e-05
"742",5.86247569378529e-08
"743",0.0409091906225556
"744",2.96414453575533e-05
"745",0.000573548182242978
"746",8.01351153878471e-07
"747",0.000121558393813004
"748",4.95375668874143e-06
"749",7.88278779130236e-05
"750",2.53817078466057e-10
"751",0.00410760091560036
"752",0.145879396759114
"753",2.57864356534299e-08
"754",0.0798369720859708
"755",0.0229012623259996
"756",4.96079172451758e-06
"757",0.00174651703629569
"758",0.000115839270799056
"759",1.57815546957263e-05
"760",0.000163837858267901
"761",1.11022302462516e-16
"762",7.03960888137622e-07
"763",0
"764",6.4469485305807e-09
"765",1.11022302462516e-16
"766",0.0143478276483395
"767",0.000263321623810597
"768",1.15070821626873e-06
"769",1.22718502026942e-10
"770",1.4432899320127e-15
"771",0.38749117314826
"772",0.0125861446453838
"773",0.0164790833272848
"774",0.22833853861632
"775",0.551863139221214
"776",0.153596955721301
"777",0.643478086096871
"778",0.598423791265929
"779",0.253301408168792
"780",0.0485747126562565
"781",0.391612793814328
"782",0.677937283733071
"783",0.430926143660524
"784",0.0215660504928754
"785",0.361148580335097
"786",0.322265123172466
"787",0.30599795823767
"788",0.0726523502520502
"789",0.49037236545366
"790",0.248552466627584
"791",0.113051942394476
"792",0.968632935373191
"793",0.289597658337354
"794",0.125958218095488
"795",0.509066225402556
"796",0.792067812028134
"797",0.664108907857458
"798",0.540013122739186
"799",0.0242393497177191
"800",0
"801",0.083206496836332
"802",4.21008458539873e-07
"803",0.118579799137788
"804",0.505013539920949
"805",0.0196343144441888
"806",0.0723731237797799
"807",0.0091169184925135
"808",0.0400369381576664
"809",0.205082052868021
"810",0.0280881259965006
"811",1.2357711587363e-07
"812",8.54871728961371e-15
"813",0.0562098328496464
"814",0.0855855216235879
"815",0.472628342523484
"816",0.800645754422067
"817",0.419614538425857
"818",9.02354877485578e-08
"819",0
"820",0.0135656905878836
"821",0
"822",0.50948511337463
"823",5.64469012199753e-05
"824",0.011405082466948
"825",0.0241308184046408
"826",0.51753831465454
"827",0.564908325291584
"828",0.00572057394390502
"829",0.950851180891488
"830",1.62439173223561e-09
"831",0.000699172396047776
"832",1.9681987107889e-06
"833",0.00158092110688102
"834",0.202466738128978
"835",0.00121073313155773
"836",0.00592486224951139
"837",2.02184935460537e-11
"838",0.123753681651391
"839",0.00139941630772555
"840",0.000127686988388942
"841",8.75986667325801e-06
"842",9.27145146822905e-06
"843",0.134674538828045
"844",4.70057326396045e-11
"845",2.77555756156289e-15
"846",8.88178419700125e-16
"847",3.81379466896092e-08
"848",8.83636497306384e-11
"849",1.24774062193467e-08
"850",1.98950173313506e-06
"851",1.64132929469929e-10
"852",3.24101737336768e-07
"853",5.27263455118998e-10
"854",1.99774585762924e-08
"855",6.64535093619634e-12
"856",0.00181275914014944
"857",5.62734303599655e-10
"858",7.40352223971286e-12
"859",9.55804879687605e-10
"860",0.000800860395585024
"861",0.0097041002205952
"862",0.000424236228137476
"863",0.00314287065373242
"864",1.0528488525452e-08
"865",0.00977643237154113
"866",0.204961523085448
"867",0.00203405685641467
"868",0.0559375560902081
"869",6.61640394694629e-08
"870",0.000883010682114826
"871",2.96204696615954e-05
"872",0.0421126888991308
"873",0.0658462430883239
"874",1.12097929748645e-05
"875",7.52831130768072e-12
"876",2.04905234557629e-07
"877",0.165942658513368
"878",0.000830128740814451
"879",0.00764085908346024
"880",8.61871350288368e-07
"881",2.64366317725973e-09
"882",0.00113702117357606
"883",2.40957809261033e-10
"884",6.78052296532172e-08
"885",0.737462604333627
"886",0.373225491742842
"887",0.00811615554290845
"888",0.0845474703834496
"889",0.00327032176668474
"890",0.0328162176713609
"891",0.238158071902519
"892",0.112320024869991
"893",0.00582357513586196
"894",1.47330130428891e-06
"895",0.0610176648028751
"896",4.45154821548943e-05
"897",6.10548426995816e-05
"898",0.010608032073234
"899",0.052684966086529
"900",0.456251436571733
"901",1.64808071634326e-08
"902",0.0480261619456943
"903",0.000255819797394086
"904",7.24070137181343e-10
"905",0.000346150173574866
"906",0.000194079745725606
"907",7.21378734525047e-09
"908",0.266844034332133
"909",0.000901562036381032
"910",1.74691705545627e-10
"911",1.11022302462516e-16
"912",0.0192917400219098
"913",6.66133814775094e-16
"914",1.3855583347322e-13
"915",3.29903832252398e-07
"916",3.99680288865056e-15
"917",0.00157835553779206
"918",5.741854961272e-06
"919",1.55034540760823e-09
"920",9.46957074310362e-07
"921",8.97218965789648e-11
"922",2.93810854776755e-05
"923",5.37045519166668e-10
"924",1.6494583476856e-12
"925",0.000338890609215214
"926",2.882910379709e-05
"927",1.92901250528621e-12
"928",0.00106187919403211
"929",4.12580087451042e-05
"930",0.00519821564906975
"931",2.88657986402541e-15
"932",4.69663468116721e-08
"933",2.48658732826534e-06
"934",4.93105282273198e-07
"935",0.00333996262540481
"936",6.91896747706533e-06
"937",3.82992214964517e-06
"938",8.92111939876372e-11
"939",1.28835204171729e-07
"940",5.15161024949862e-10
"941",9.52616874272394e-10
"942",1.42796885427288e-12
"943",2.93075173698476e-05
"944",2.65887312167479e-12
"945",0.00211175328002522
"946",0.000103888040710376
"947",1.71368215939882e-06
"948",0.147309968096297
"949",0.0230291459603685
"950",0.0820804745179873
"951",0.0480274716302574
"952",0.919317187492244
"953",0.0356751615663862
"954",0.0228551545541864
"955",2.5465310538042e-06
"956",0.601030492486753
"957",0.358508994014554
"958",0.207712029086509
"959",0.593457518730478
"960",0.0156106516796194
"961",0.00214462565280449
"962",0.000270010888982153
"963",2.77798561088005e-05
"964",0
"965",0.142639425543424
"966",1.09226738764789e-10
"967",0.0165525920192927
"968",0.540602320364991
"969",0.649129512038709
"970",1.70318010672688e-06
"971",0.587791672091815
"972",0.0001014132428796
"973",0.172718865886606
"974",0.00164287134068419
"975",0.217500331148718
"976",0.0578370428202827
"977",0.608847742606408
"978",0.183214812740368
"979",0.763582527256468
"980",0.0876568423521238
"981",0.807587884206652
"982",3.00426350463567e-12
"983",5.304645611659e-13
"984",0
"985",1.11022302462516e-16
"986",0.661916621180031
"987",0
"988",7.91007648270892e-09
"989",1.11022302462516e-16
"990",9.3637459323892e-05
"991",8.72989602043184e-05
"992",2.85615098238878e-09
"993",6.68494334010727e-06
"994",0.0197382115844252
"995",0.0597551035890842
"996",0.00229063434445498
"997",0
"998",2.14042324975239e-08
"999",0.241486692438499
"1000",0.351157305537706
"1001",5.45901340909261e-07
"1002",0.000292826194711382
"1003",0.140774137349692
"1004",0.549372171319077
"1005",0.340603495678676
"1006",1.79439508495305e-05
"1007",0.105779151702763
"1008",0.50718609152682
"1009",0.251827375117035
"1010",0.00494883637909282
"1011",0
"1012",0.0997285437494095
"1013",0.417692597092042
"1014",0.0306917385202732
"1015",0.905765393165348
"1016",0.790224254024027
"1017",0.0266245897901494
"1018",0.0497480397485539
"1019",0.862930491315684
"1020",0.00397046204584706
"1021",0.0506133391905648
"1022",0.461988733131425
"1023",0.000147326642173873
"1024",0.908774675900179
"1025",0.0389836906789035
"1026",0.0238358413227847
"1027",0.215931957111815
"1028",0.901077767166441
"1029",0.359194731539267
"1030",0.546043719677517
"1031",0.0505386618116167
"1032",0.386990545774379
"1033",0.288385612429749
"1034",0.057193593972255
"1035",0.00805539546476297
"1036",0
"1037",0.0172299290771319
"1038",0
"1039",0.411932360457884
"1040",3.16487608265081e-05
"1041",0.838810574651368
"1042",5.17067380239045e-05
"1043",0.10049333766745
"1044",0.107093425203014
"1045",0.0408253692563475
"1046",0.426552169118818
"1047",0.999975749049613
"1048",0.000112532321225656
"1049",0
"1050",5.39539357635732e-09
"1051",2.1094237467878e-15
"1052",0.401192865358653
"1053",0.695260664229701
"1054",0.70714658051725
"1055",0.88505350654415
"1056",0.524457120918352
"1057",0.635405951156626
"1058",0.0886400487834101
"1059",0.896971057874213
"1060",0.964776495178212
"1061",0.733458604636405
"1062",0.973780480137823
"1063",0.0381887057573159
"1064",0.834521889675875
"1065",0.784368626157792
"1066",4.30134816653549e-11
"1067",5.58739703393485e-08
"1068",6.08542105595689e-11
"1069",0.3839812344388
"1070",0.000164715827364215
"1071",0.58356670083521
"1072",0.0810246196148988
"1073",4.35991604452735e-06
"1074",0.880500729450713
"1075",0.183862929306299
"1076",0.816929111480114
"1077",0.445043732167137
"1078",0.595870498738169
"1079",0.768529823420244
"1080",0.72363420246167
"1081",0.00951992264181145
"1082",0.778417421632064
"1083",0.195233526234668
"1084",0.0148823040727618
"1085",0.690929968076495
"1086",0
"1087",0.000524531932931671
"1088",0.31521699453796
"1089",0.812635968784181
"1090",0.852078473183311
"1091",0.768828851996289
"1092",0.000380020247504054
"1093",3.66373598126302e-15
"1094",0.202920957604808
"1095",0.745393406869968
"1096",0.714179147541694
"1097",0.0113575255991227
"1098",0.839828520784428
"1099",0.0583658997037226
"1100",0.0774617507751035
"1101",0.0365038776340996
"1102",0.430903675648242
"1103",0.554333718467179
"1104",0.012266918312719
"1105",0.000977229623580267
"1106",0.942375795030616
"1107",0.222324604436303
"1108",0
"1109",4.2854608750531e-14
"1110",0.126754277782427
"1111",8.0124817891658e-10
"1112",0.829271367658225
"1113",0.743209232280139
"1114",0.845513252169235
"1115",0.368231660454572
"1116",8.13969146085114e-07
"1117",0.331711494948189
"1118",1.11022302462516e-16
"1119",0.110446165981313
"1120",0.363573078787825
"1121",0.0028071855364481
"1122",1.63049506263224e-06
"1123",0.75858333387509
"1124",0.755770368487362
"1125",0.684187967088132
"1126",0.0450688515676079
"1127",0.00147542389921906
"1128",0.330583194194528
"1129",0.206053180708412
"1130",0.0358307325807726
"1131",0
"1132",0.983309487047944
"1133",0.908746677450568
"1134",0.888353684327351
"1135",0.923343039663904
"1136",0.380832239188642
"1137",3.85677536107742e-06
"1138",1.17163033719336e-08
"1139",0.000385950203878771
"1140",0.0114917956090663
"1141",0.323577205315864
"1142",0.966351548912642
"1143",0.697700058504326
"1144",1.01482489078819e-10
"1145",0.746253013184532
"1146",0.382503279320809
"1147",0.308432610533803
"1148",0.0953878250338022
"1149",0.220711890815234
"1150",0.438967417867005
"1151",0.548945963788409
"1152",0.815594476233799
"1153",0.0399295923571895
"1154",0.83140200161751
"1155",0.96284494135721
"1156",0.00302813348743414
"1157",0.0858225811197399
"1158",0.552152331625189
"1159",0.6810564602039
"1160",0.219429464232152
"1161",0.106549543516425
"1162",0.368879992411677
"1163",0.410070190847934
"1164",0.0679796054543571
"1165",1.28040837716892e-05
"1166",1.23456800338317e-13
"1167",3.8969722566673e-06
"1168",0.000119908083016873
"1169",0
"1170",2.29539812712787e-08
"1171",9.85244870954638e-06
"1172",0.000152005098515318
"1173",0.210937621277676
"1174",0.0229986452358725
"1175",0.062413679536157
"1176",0.259001396137893
"1177",0.24993202638855
"1178",0.263753503600443
"1179",0.016205978849081
"1180",0.000572580469848205
"1181",0.70126380386048
"1182",2.84380237625115e-05
"1183",0.245282798303472
"1184",0.814571193077088
"1185",3.61506550028423e-07
"1186",0.0347772217079382
"1187",0.270154574653296
"1188",0.300348095478567
"1189",0.701611553823366
"1190",0.0427903259852515
"1191",0.181637970931529
"1192",0.60466465700898
"1193",0.795089250932691
"1194",0.0202185429762504
"1195",0
"1196",0.0804913056430184
"1197",5.65407015279407e-05
"1198",0.00342951042626205
"1199",0.00128463337136586
"1200",1.19388459940417e-06
"1201",0.00367916913743016
"1202",0.000230441358371802
"1203",0.724806820598506
"1204",0.217150467539299
"1205",0.506304653017883
"1206",0
"1207",0.0983833273480685
"1208",1.97451852690378e-06
"1209",0.00935667220287573
"1210",0.489355787066295
"1211",0.0332467935077372
"1212",0.120003249884187
"1213",0.242564530402469
"1214",0.0458261769563807
"1215",0.649934126699667
"1216",0.000915550787956909
"1217",5.39543536701714e-05
"1218",0.778602030270937
"1219",7.94997401243336e-12
"1220",2.65262924958876e-08
"1221",7.11050884838471e-10
"1222",1.30406846921005e-06
"1223",7.54507567535256e-13
"1224",0.02383749496225
"1225",0.407705610514294
"1226",0.437730204009513
"1227",0.684241244230567
"1228",0
"1229",0
"1230",0.0596390740191833
"1231",0
"1232",0.77627279559946
"1233",0.112437563363512
"1234",0.0021923216269365
"1235",0.0464241019955204
"1236",0.405047422050371
"1237",0.90099332684255
"1238",0.702664682468884
"1239",0.919267015884006
"1240",0.361408986474635
"1241",0.0637303836254708
"1242",0.374796402389386
"1243",1.99069122863715e-06
"1244",8.2689965985594e-10
"1245",0.0658957448892564
"1246",0.263725399197865
"1247",0.00809781123823905
"1248",0.0689000658691952
"1249",0.695414866506898
"1250",0.479099916671125
"1251",0.21666369597936
"1252",5.41566791412151e-13
"1253",9.8750808261161e-05
"1254",0.707611290545488
"1255",0.121981196749941
"1256",1.42774680966795e-13
"1257",3.27979028380554e-08
"1258",7.97279492517067e-05
"1259",4.04913078511093e-07
"1260",0.000302786676825151
"1261",0.000713863809846615
"1262",2.76297085322064e-07
"1263",0.000188752536435355
"1264",0
"1265",0
"1266",0.0555923397452691
"1267",3.9013237085328e-13
"1268",0.000183876931295957
"1269",1.59590289872114e-08
"1270",5.32928169372227e-08
"1271",0.0219439046359619
"1272",0.113489309761158
"1273",1
"1274",2.61461241546357e-09
"1275",0
"1276",0.0515426059831454
"1277",0.78889701126598
"1278",2.15456061880559e-07
"1279",0.0172529138157083
"1280",2.65923517650535e-08
"1281",3.0668157490199e-06
"1282",0.121438998210375
"1283",0.0626851651812934
"1284",0
"1285",0.0265077629632242
"1286",0.283344239903187
"1287",0.00667900233875762
"1288",0.117803385182179
"1289",0.431856294229798
"1290",0.549999893921298
"1291",0.309429212498389
"1292",0.630640108992754
"1293",0.296366170110501
"1294",0.765581131948457
"1295",0.0430105664792922
"1296",0.62263353935244
"1297",0.193337167223104
"1298",0.178946811682155
"1299",0.108015678580217
"1300",0.231917652738862
"1301",0.221257071671564
"1302",0.324055273123411
"1303",0.229888691514983
"1304",0.363917910860427
"1305",0.0448272778061451
"1306",0.645599728965631
"1307",0.616988727974321
"1308",0.111346891645056
"1309",0.569291269894272
"1310",0.201392838553722
"1311",0.947255530376961
"1312",0.0598840230728779
"1313",0.241135280766023
"1314",0.498236891806677
"1315",0.973546457301993
"1316",0.0149045098203644
"1317",0.521136105098868
"1318",0.410585919650582
"1319",1.11022302462516e-16
"1320",9.76755311077326e-08
"1321",0.154368064899206
"1322",0.574165723116691
"1323",0.590902377533361
"1324",0.559854747747499
"1325",9.15126585621096e-09
"1326",0.21113635117091
"1327",0.0288363636695925
"1328",1.07102214046417e-05
"1329",0.111792946412778
"1330",1.53057523988309e-07
"1331",0.0154690209526916
"1332",0.195579772024663
"1333",0.259885432285494
"1334",2.19069319685739e-05
"1335",0.021250415491969
"1336",0.15573830546983
"1337",0.00299914145946178
"1338",0.264288185862146
"1339",0.204342440672369
"1340",0.000232066130039899
"1341",0.406184165116618
"1342",0.00231724303456027
"1343",0.17575052175484
"1344",0.17972504476335
"1345",0.164028758453858
"1346",0.147079217755296
"1347",0.0805287195513641
"1348",0.716753920484822
"1349",0.111117478103612
"1350",0.0417095442445405
"1351",0.0120554478848018
"1352",0.0346867960743542
"1353",0.425459612280602
"1354",0.598386286883826
"1355",0.0162969195258764
"1356",0.762559495754102
"1357",0.0806225078425012
"1358",0.0259411463626957
"1359",0.0120807401834486
"1360",7.04561904374401e-08
"1361",0.00081543972241116
"1362",1.90182161230457e-06
"1363",0.685260938383746
"1364",0.203525894296132
"1365",0.0190529056628584
"1366",0.0449102746034687
"1367",0.0290894455020785
"1368",0.00646583062550432
"1369",0.00810742011291921
"1370",0.000527794750490584
"1371",0.000851539466221407
"1372",0.0118404110959661
"1373",0.000324903396116349
"1374",0.0027651560362485
"1375",0.0966947670794218
"1376",0.259399300903332
"1377",0.534718085835324
"1378",0.775363359634217
"1379",0.131389686949595
"1380",0.000274849636452745
"1381",0.0382678324995968
"1382",0.000371177778017762
"1383",3.84901511552016e-07
"1384",0.285707403885201
"1385",0.0445273746243549
"1386",5.01221275859276e-05
"1387",8.85376615388234e-05
"1388",3.2493173679482e-06
"1389",0.0140688945159186
"1390",5.38404422230077e-05
"1391",1.44869727325414e-09
"1392",0.0147423585477902
"1393",0.0347952345895215
"1394",7.21338522580162e-07
"1395",0.000408407197099447
"1396",0.0270064266331715
"1397",0.890312036089635
"1398",0.246882389844692
"1399",0.708326057842922
"1400",0.00132574057620083
"1401",4.99428944866764e-08
"1402",0.367940291118166
"1403",0.519808897673316
"1404",0.089479782471094
"1405",0.170735331244522
"1406",0.167104997448669
"1407",0.0470724885031476
"1408",0.560253415183288
"1409",0.116631656124458
"1410",0.213619248269285
"1411",0.291003566294813
"1412",0.838584065686477
"1413",0.971972509147721
"1414",0.380597910534173
"1415",0.113462887580002
"1416",0.136550673107747
"1417",0.205449862572563
"1418",0.208952598894999
"1419",0.368429800111272
"1420",0.192831734369319
"1421",0.419052627591969
"1422",0.677841858834355
"1423",0.693154228399231
"1424",0.0355954056827493
"1425",0.989797603096499
"1426",0.0762582685936432
"1427",0.452161869594538
"1428",0.180840111144943
"1429",0.52688171139005
"1430",0.316707677518987
"1431",0.677901098065625
"1432",0.197569017386251
"1433",0.603432010307422
"1434",0.557550737945055
"1435",0.0161383696675291
"1436",0.961509106525726
"1437",0.887181415284459
"1438",0.0419082051044638
"1439",0.391230797686098
"1440",0.573202875872589
"1441",0.0725502818623233
"1442",0.852140009866933
"1443",0.284100386648678
"1444",0.747799874707711
"1445",0.465947680884772
"1446",0.101838885258325
"1447",0.833197416703964
"1448",0.822876307707435
"1449",0.869200905345009
"1450",0.449676048952599
"1451",0.582434027230992
"1452",1.9814727636458e-10
"1453",0.0618426031748653
"1454",0.0490403525760001
"1455",2.30926389122033e-14
"1456",0.00751728961549791
"1457",0
"1458",0.0159068692997507
"1459",2.4553262405469e-06
"1460",0.00091386851841857
"1461",0.144534783065367
"1462",0.000229910842952319
"1463",0.276445881031659
"1464",0.0339660721402743
"1465",0.000403356720394044
"1466",0.246926214411301
"1467",0.000337197946549184
"1468",0.00610650839401128
"1469",0.0700406650994182
"1470",2.46816208870904e-05
"1471",0.0320709507499394
"1472",0.00140703628293082
"1473",1.40801562420467e-06
"1474",0.40907464147176
"1475",0.00483163319988456
"1476",9.30972043899914e-09
"1477",0.000828913167030154
"1478",0.00276793420511978
"1479",3.76791339808946e-05
"1480",0.509596873601987
"1481",0.632276977895054
"1482",0.0251032689701437
"1483",8.23649142556171e-07
"1484",0.0949503417390728
"1485",0.451849159489048
"1486",0.136312362536827
"1487",0.10311166890999
"1488",0.040639689255497
"1489",9.28232151142794e-08
"1490",0.226144896991298
"1491",0.0763405322254481
"1492",0.239847651767113
"1493",0.195196562890492
"1494",0.25016717916997
"1495",0.437127834959777
"1496",5.73975984543562e-05
"1497",0.0257344911562681
"1498",0.183230865780736
"1499",0.136304849012906
"1500",0.0175802878120567
"1501",0.331593649189192
"1502",0.228870742286133
"1503",0.0115220573402264
"1504",0.3324105259576
"1505",0.0792305301275622
"1506",2.25816024768122e-08
"1507",3.66919258487641e-06
"1508",9.11115063728651e-07
"1509",3.07827356799129e-05
"1510",0.00574540087163522
"1511",0.0769779528324295
"1512",0.000198098893117282
"1513",0
"1514",9.43234893642231e-05
"1515",5.86064031982136e-06
"1516",1.827504103602e-08
"1517",5.95387101842704e-08
"1518",0.00203762122683782
"1519",1.47098022651448e-09
"1520",2.84533053862557e-06
"1521",1.33226762955019e-14
"1522",1.37334588146132e-13
"1523",0.000157268290300383
"1524",3.84174692058536e-10
"1525",0.00327903246476968
"1526",9.95574940432231e-06
"1527",0.147877851298536
"1528",0.00314059859613602
"1529",0.247200720157655
"1530",0.026141052422346
"1531",0.00556347253668066
"1532",4.94801966799407e-05
"1533",3.85896566923449e-08
"1534",0.0504154777369155
"1535",4.78136298590615e-05
"1536",0.000894243320393118
"1537",0.0163684753442646
"1538",0.148469577411722
"1539",1.34508113536214e-08
"1540",6.925291049098e-05
"1541",0.256663489830612
"1542",0.115418343491881
"1543",0.293381462233755
"1544",0.39972113408823
"1545",6.71436887101917e-05
"1546",0.0136686697749138
"1547",0.000661636440003499
"1548",0.817257298664351
"1549",0.569558818805491
"1550",0.000640978653735469
"1551",1.33892604781138e-07
"1552",0.00012040851991002
"1553",0.0405700366254687
"1554",0.0152893636656229
"1555",0.216163473547982
"1556",0.000925155803957356
"1557",0.0512187849979642
"1558",0.299700784964312
"1559",0.0835065535530677
"1560",3.32844862782622e-13
"1561",6.79629508226753e-09
"1562",0.631263792164154
"1563",0.780771572874652
"1564",0.770925693209996
"1565",1.11022302462516e-16
"1566",0.00875977491079427
"1567",0.194731626860667
"1568",0
"1569",0.0858241544702745
"1570",0.00151059685800425
"1571",0.00251590755694453
"1572",2.14896093739814e-05
"1573",0.000219468231998809
"1574",0.231416826224523
"1575",0
"1576",0.765327769621936
"1577",0.0238430749248747
"1578",0.012266793974302
"1579",0.17679081784275
"1580",0.582379568457682
"1581",9.93281184671346e-05
"1582",6.54644533470972e-06
"1583",0.000101992714204191
"1584",5.84332894772999e-05
"1585",0.00821567162782755
"1586",7.13987975528019e-05
"1587",0.00443046584431805
"1588",0.0640194601051611
"1589",0.500746888427185
"1590",0.000465201051248254
"1591",0.043826504981065
"1592",6.46476742693913e-07
"1593",0.00447090470016709
"1594",5.69631732253439e-05
"1595",2.7945490255199e-08
"1596",0.00293851201225492
"1597",0.0202583152513304
"1598",9.00810248438688e-06
"1599",0.00114359789529617
"1600",0.00165679926111806
"1601",1.54054220724564e-06
"1602",1.77758193387056e-07
"1603",2.82770528864384e-05
"1604",0.00151287549853718
"1605",0.00104107097102102
"1606",2.95417112535779e-05
"1607",0.0570314918087604
"1608",5.56636350732553e-05
"1609",0.00140075418045726
"1610",0.0578960844764654
"1611",0.00186761833215376
"1612",0.252645155463968
"1613",1.06510901209944e-08
"1614",6.59668600122565e-06
"1615",3.26538574180191e-07
"1616",0.165660516490689
"1617",1.02333723793757e-05
"1618",0.0124738199553778
"1619",0.154545690170212
"1620",0.0136897492914575
"1621",0.000234409863213769
"1622",2.79742895514801e-12
"1623",7.85682805592991e-05
"1624",3.39465460741373e-07
"1625",0.0265011441168111
"1626",0.253672030957123
"1627",0.000116707434922758
"1628",0.000311211888427754
"1629",1.75329847360572e-05
"1630",0.00381918872127862
"1631",0.00752249866038401
"1632",3.03305252359332e-05
"1633",0.000711409705992372
"1634",0.0179819686642926
"1635",0.00364711043163513
"1636",4.1692770347268e-09
"1637",0.00454439467950629
"1638",0.35544717500709
"1639",2.56040033619342e-09
"1640",5.51036993812204e-12
"1641",0.000263598366133211
"1642",6.22845132358663e-07
"1643",4.94030249487132e-07
"1644",0.0211561451056234
"1645",0.119807162130479
"1646",0.016849092744558
"1647",0.0126459293622755
"1648",3.19742023119352e-05
"1649",0.202317271711278
"1650",0.00287046600332386
"1651",0.111402163610294
"1652",0.77994104331069
"1653",0.0246333631176933
"1654",0.00576381629705658
"1655",0.104324690696163
"1656",6.66133814775094e-16
"1657",2.44499990710301e-05
"1658",0.0385538584365647
"1659",0.0110119052488757
"1660",0.15499357987008
"1661",0.00130348746668307
"1662",0.490576465298864
"1663",0.00228116866751316
"1664",0.0777276941648762
"1665",0.0667869808008366
"1666",0.103271118822495
"1667",0.103420581765741
"1668",1.83387740126939e-06
"1669",0.00534159073569451
"1670",0.770775052061384
"1671",0.0367158438840646
"1672",0.000429107918324068
"1673",0.0492605716610904
"1674",0.170406143289887
"1675",0.543668575731015
"1676",0.717349352783722
"1677",0.300687062229601
"1678",0.0900981920638529
"1679",0.628099758689751
"1680",1.74944236874808e-09
"1681",0.00396212932707207
"1682",0.301771122032389
"1683",0.0300467681676408
"1684",0.0465427132630084
"1685",0.19930215824703
"1686",0.00353557527235693
"1687",0.000140304138296576
"1688",0.172969782880023
"1689",0.462938559449129
"1690",0.409168007798451
"1691",6.64738835531864e-07
"1692",0.00292129670888885
"1693",0.398459821610784
"1694",0.0106634516585271
"1695",0.000956167514446493
"1696",2.11455711687236e-05
"1697",0.0277328498177407
"1698",4.36672920045567e-12
"1699",0.000196514408984272
"1700",0.0223579493758191
"1701",0.13080579689733
"1702",0.000597983272907943
"1703",0.000208228232991492
"1704",5.33242298772496e-06
"1705",3.69875086114746e-09
"1706",0.199029626559503
"1707",1.4617770563885e-05
"1708",5.74186967905455e-06
"1709",9.07875685740578e-08
"1710",0.385228546287633
"1711",0.0123017421281821
"1712",0.180070286363348
"1713",0.557240476028618
"1714",0.515377030614728
"1715",0.142894002934361
"1716",3.74057830258012e-05
"1717",0.0787421520997762
"1718",0.0805600373191114
"1719",0.405635908370445
"1720",1.99840144432528e-15
"1721",0.296903109207187
"1722",0.217168706687745
"1723",0.326377661269339
"1724",0.0241093705111197
"1725",0
"1726",1.04956614921381e-06
"1727",0.705014525812092
"1728",0.348093292273944
"1729",0.16399206744771
"1730",0.966734801302608
"1731",4.51583215266282e-12
"1732",7.0100596906153e-06
"1733",0.0103684097067999
"1734",0.000799941799548343
"1735",1.17580389868976e-11
"1736",0.212798402817161
"1737",7.24318394151879e-09
"1738",0.349664537746698
"1739",0.023552016349489
"1740",0.0194629718587698
"1741",0.0859430414591574
"1742",0.00358652029788409
"1743",0.000725290045551663
"1744",7.82348968992874e-05
"1745",0.368963978791281
"1746",8.08200436969164e-05
"1747",1.22542908931322e-06
"1748",0.00926728013113465
"1749",6.33826324758502e-13
"1750",0.00158853702656747
"1751",4.29042549623393e-05
"1752",0.368312184533152
"1753",0.238438637379716
"1754",0.00481124667807153
"1755",0.53024073658505
"1756",0.259223165381619
"1757",0.00872713345233744
"1758",0.00100297261144011
"1759",0.00187185599481443
"1760",0.000628538022325431
"1761",3.58346995388281e-06
"1762",8.18977349270611e-08
"1763",0.000463188508073809
"1764",8.90331262015653e-06
"1765",0.170509879393427
"1766",0.897254638827138
"1767",0.604199432940215
"1768",0.011751309965556
"1769",0.433570544072888
"1770",0.00657852177778473
"1771",5.01223090476621e-07
"1772",0.128697738538624
"1773",0.0650625589362455
"1774",0.0885872584428271
"1775",7.07866984417382e-06
"1776",0.0130503366169208
"1777",1.92603049065099e-07
"1778",1.69411705224221e-05
"1779",3.4452472685631e-05
"1780",0.236787522829883
"1781",0.122511775030941
"1782",0.397723688470505
"1783",0.0034758501816291
"1784",0.00950205783601932
"1785",3.97862000012239e-08
"1786",1.43585096101795e-06
"1787",0.000643975390619778
"1788",0.107365703802327
"1789",0.0943715768655162
"1790",0.020343139203017
"1791",0.15568121278668
"1792",0.0142390982946358
"1793",3.01642935918167e-06
"1794",0.4170825744436
"1795",0.681540541584179
"1796",9.69519994287182e-08
"1797",0.386833299904549
"1798",0.33995489355314
"1799",0.001809889238506
"1800",0.0165918406638016
"1801",0.00630508120802664
"1802",0.000242521362127879
"1803",0.170122030284337
"1804",0.0288924226242678
"1805",4.26325053037857e-09
"1806",0.208951498077605
"1807",0.386284601221226
"1808",1.65034065302549e-08
"1809",0.0336364490742094
"1810",0.0323150972935654
"1811",0.12185740526286
"1812",0.00180813400519431
"1813",0.0680321743571356
"1814",0.140995825210004
"1815",0.127726411995891
"1816",1.66808779267225e-06
"1817",0.0275291620975059
"1818",0.426787460991444
"1819",0.127891489420924
"1820",0.01987683696178
"1821",0.376266976155447
"1822",0.556291853533158
"1823",0.223864392482788
"1824",0.000894356243330674
"1825",0.122121683749231
"1826",0.045098694671771
"1827",0.262747965854002
"1828",0.704257232033244
"1829",0.030194128446776
"1830",0.70796696068171
"1831",0.135438125980855
"1832",0.0160222601300305
"1833",0.000308666942669622
"1834",0.547406905215083
"1835",0.688643010459353
"1836",0.0447738709430276
"1837",1.01077638650082e-05
"1838",0.00909613673972887
"1839",0.539301826990815
"1840",0.000211905702168558
"1841",0.54808398344283
"1842",0.529666760275842
"1843",4.29662971868083e-11
"1844",1.28053123660266e-11
"1845",0.259694748774038
"1846",0.507584238032981
"1847",0.000495905023447318
"1848",0.616297593020899
"1849",0.00110847735974706
"1850",0.124110492350143
"1851",0.00346097787378852
"1852",0.000154393711127243
"1853",0.306345575440098
"1854",0.320668021895588
"1855",0.0149115754960603
"1856",0.00765365186642231
"1857",0.199417437824807
"1858",1.80405792093996e-06
"1859",0.996836154106484
"1860",0.0189860695301654
"1861",0.0438625220188273
"1862",0.0702289959539539
"1863",4.87337827255185e-05
"1864",0.0597024269622158
"1865",4.38998282170644e-10
"1866",6.66375958309207e-05
"1867",0.102612156690932
"1868",4.46243468876784e-05
"1869",4.68952056986716e-06
"1870",8.88178419700125e-16
"1871",3.56042417770652e-10
"1872",0.0007875709070847
"1873",4.01012159034764e-08
"1874",0
"1875",0.117870198616072
"1876",5.69063422151128e-06
"1877",4.47325708696766e-08
"1878",3.93533040266014e-07
"1879",0.000124598306977641
"1880",6.40697018450265e-06
"1881",8.32667268468867e-15
"1882",0.000387982492107364
"1883",0.691956342728131
"1884",0.000280441909793372
"1885",0.00204642331316374
"1886",0.340167541003097
"1887",0.00150648924218033
"1888",0.164407256975992
"1889",1.18834988684924e-05
"1890",5.57988699689815e-09
"1891",1.50357165398241e-05
"1892",0.00386835467700053
"1893",0.0128970791808088
"1894",0.00188786138505637
"1895",0.410808508841642
"1896",0.246909348965404
"1897",0
"1898",0.000833976994739638
"1899",0.0451586105549272
"1900",4.97693086742856e-09
"1901",0.635609328863516
"1902",0.0376943260390789
"1903",0.0153437235836297
"1904",0.794138451257803
"1905",0.379279245067031
"1906",0.109957571872187
"1907",1.53765888910584e-13
"1908",0.321061517095113
"1909",0.35318463494882
"1910",0.621965123659673
"1911",0.110749134288246
"1912",0.0983494845124447
"1913",8.76364536495089e-11
"1914",1.11022302462516e-16
"1915",0.139571601614384
"1916",0.394434282570425
"1917",0.723866750072505
"1918",0.768345656137094
"1919",0.622464579792796
"1920",1.4210854715202e-14
"1921",0
"1922",2.31789041049701e-06
"1923",7.11796427007583e-05
"1924",1.17253105036408e-05
"1925",8.96538399075553e-11
"1926",8.23811385775031e-09
"1927",0
"1928",2.86744864030908e-06
"1929",0.00359586770699083
"1930",0.451623829237374
"1931",0
"1932",0
"1933",0.145425211537071
"1934",0.636352796926784
"1935",0.898835200922151
"1936",0.00361223408272437
"1937",0.445281812628588
"1938",0
"1939",0.000406899456626308
"1940",2.1094237467878e-14
"1941",0.281665238151437
"1942",0.394068095335639
"1943",0.303474857243924
"1944",0.613516109970495
"1945",0
"1946",0.0061698541909988
"1947",0.016839247800232
"1948",0.496744870524893
"1949",0.0945651350287506
"1950",0.538935674528953
"1951",0.00653281562833796
"1952",0.0884062584938513
"1953",0.0221133202430942
"1954",0.176803454278082
"1955",0.00934042393234136
"1956",1.72857402558346e-05
"1957",0.0011312761991108
"1958",1
"1959",1.06471339056391e-05
"1960",0.000534964314877429
"1961",0.226346287611053
"1962",0.11896384636219
"1963",0.823152440044261
"1964",0.25039289666385
"1965",0.146999067244834
"1966",0.707344785511329
"1967",0.000385786351351558
"1968",2.71421185450427e-05
"1969",0.0967228801319296
"1970",0.0253883041681787
"1971",0.569421039828291
"1972",0.836357905134332
"1973",1.38447614483894e-08
"1974",0.00615582671161308
"1975",2.84228196534286e-12
"1976",2.14717132962505e-13
"1977",0
"1978",0
"1979",0.976000674649405
"1980",0.00868895593459407
"1981",0.229626513827015
"1982",0.637352566478138
"1983",0.47164866215264
"1984",5.00570492945052e-07
"1985",6.95155044638796e-10
"1986",1.64991886819621e-08
"1987",6.54134572952714e-06
"1988",0.459462091134438
"1989",0.835084322607849
"1990",9.33120247736952e-12
"1991",0.878853220022622
"1992",0.0477477799223973
"1993",0.933783676784427
"1994",0.487464749378794
"1995",0.935363778644034
"1996",0.735628815959259
"1997",0.759924532519645
"1998",1.42338595798819e-07
"1999",4.37143365950021e-08
"2000",7.6616035737942e-10
"2001",1.00203712309899e-05
"2002",0
"2003",0.44210383245197
"2004",0.00197350517471162
"2005",7.91946370815033e-07
"2006",3.09247072394214e-11
"2007",1.43855349854505e-09
"2008",0.0491336440626431
"2009",2.17692178726692e-05
"2010",0.62952733785072
"2011",0.0567384074191859
"2012",0.198368494832818
"2013",0.721658805652018
"2014",0.309200088854793
"2015",0.127978438689634
"2016",0.0928708229762146
"2017",0.336407020844441
"2018",0.625802019883053
"2019",8.13345406580623e-08
"2020",0.678499090823542
"2021",0.313570608926839
"2022",0
"2023",0.0854397391131836
"2024",0.8383169191507
"2025",0.885420378740339
"2026",0.860414296996529
"2027",0
"2028",0.999196044743957
"2029",1.36816466822509e-07
"2030",4.83090343288417e-05
"2031",0.134412445345847
"2032",0.944406026577461
"2033",0.359842485636715
"2034",0.909724787256408
"2035",0.813858264780337
"2036",0.918990202595219
"2037",4.44089209850063e-16
"2038",0.977249998266068
"2039",0.450985886398066
"2040",0.000810834657662185
"2041",3.32156533565664e-05
"2042",2.8155255904494e-13
"2043",1.7430501486615e-14
"2044",1.57769221131865e-07
"2045",0
"2046",2.36472626591322e-07
"2047",4.12109204928068e-06
"2048",3.83979956386504e-05
"2049",0.00204769366657331
"2050",0.00441216551868051
"2051",0.0143221216155088
"2052",0.48275088545664
"2053",1.41187062041581e-12
"2054",1.66533453693773e-14
"2055",0.0440041507978355
"2056",0.000181723973743386
"2057",0.0404910169231456
"2058",0.0110667737852086
"2059",1.88737914186277e-14
"2060",0.128202855392288
"2061",0.0322050190425131
"2062",0.000327996315836021
"2063",3.03662816669714e-06
"2064",3.77475828372553e-15
"2065",0.0758712760415207
"2066",1.52443613288256e-11
"2067",0.0130121121892626
"2068",7.3343533828929e-05
"2069",0.664666674146959
"2070",0.73727858580122
"2071",0.371024579803599
"2072",0.0129038962542969
"2073",0.21703563171417
"2074",0.742715167896747
"2075",1.31748734821802e-06
"2076",6.0285110237146e-14
"2077",0.0921587596740109
"2078",0.0233958530601405
"2079",0
"2080",0.0589345892326233
"2081",3.5527136788005e-15
"2082",0.415807136502587
"2083",0.657629384877738
"2084",1.32271048391974e-05
"2085",7.19485695795941e-05
"2086",0.29981532103341
"2087",0.994106872735147
"2088",0.0620633725907824
"2089",0.00524324557759248
"2090",9.04388664799693e-05
"2091",0.0838678287976928
"2092",0.837854492901662
"2093",0.0785348865913411
"2094",0.00818057040784337
"2095",0.109461175224949
"2096",0.768214743804754
"2097",0.107273855441292
"2098",0.888635558435556
"2099",0.0490553574645474
"2100",0.199630931661846
"2101",0.941888450348525
"2102",3.08139402882546e-09
"2103",0.277952784834673
"2104",0
"2105",0.00209522542832119
"2106",0.0515466239745149
"2107",0.678258348643261
"2108",0.141159704229586
"2109",0.552104895220847
"2110",8.14006639870968e-11
"2111",7.51199227132515e-05
"2112",0.0312747364566097
"2113",0
"2114",0.000122458216521237
"2115",0.0884925392676794
"2116",0.00208191665946122
"2117",0.00240328069047124
"2118",1.87549288335198e-05
"2119",0.0684368991475435
"2120",0.00054957093691077
"2121",0.000219279407645989
"2122",1.58376072489919e-06
"2123",0.00187472279680811
"2124",0.182725451501019
"2125",0.0338007648988113
"2126",0.00671576430790954
"2127",0.000938841379625743
"2128",0.00110848282798548
"2129",0.646494622627783
"2130",0.00047740482692249
"2131",0.398781833357923
"2132",0.0552525557830285
"2133",0.0355061659286292
"2134",0.0173689110750834
"2135",2.20667089045889e-07
"2136",0.483521956989195
"2137",0.276623734392724
"2138",0.0600904008958372
"2139",0.080312545184033
"2140",0.840095799088353
"2141",0.0254637514131429
"2142",0.000620783988951823
"2143",0.106739376694453
"2144",0.0152077134464456
"2145",0.12051172828145
"2146",0.147961656078382
"2147",0.169971653365562
"2148",0.000174911493047714
"2149",4.52127358885335e-08
"2150",3.47473383399688e-10
"2151",0.054418813215957
"2152",0.00278273493789416
"2153",0.000102164464556798
"2154",0.00047256689815578
"2155",2.77555756156289e-15
"2156",2.63746138484677e-07
"2157",4.15438505818599e-09
"2158",0.000801915710495371
"2159",8.55100645846818e-09
"2160",1.13473732465952e-06
"2161",3.8955180609368e-05
"2162",0.0483606998879642
"2163",1.36953248630611e-05
"2164",0.00348219357353774
"2165",0.000110808666196838
"2166",0
"2167",0.00688360811437649
"2168",0.0898978755198738
"2169",0.111372728724849
"2170",0.232983138318457
"2171",0.226226815027886
"2172",0.351822082832999
"2173",0.00857263844689171
"2174",0.00219886497413491
"2175",0.0057189778512261
"2176",0.499525177629355
"2177",0.0513195354984893
"2178",0.27471598120097
"2179",0.0805472971388853
"2180",0.0429142048396853
"2181",0.12182546216361
"2182",3.72872414722281e-07
"2183",0.0802502868064573
"2184",0.000186208930589626
"2185",0.0128991359481697
"2186",0.67233753103301
"2187",1.24985098859387e-06
"2188",0.863558546718411
"2189",0.275341486493569
"2190",0.288204618245885
"2191",0.0243274126480941
"2192",0.000192795538006219
"2193",0.000571597042547278
"2194",2.01232141949781e-07
"2195",0.00428840939819897
"2196",0.000281932987719724
"2197",0.585373330630374
"2198",0.0197033844447706
"2199",0.158134335948916
"2200",0.302495596203656
"2201",0.00060510523983881
"2202",0.0973315243882197
"2203",0.722882472769433
"2204",0.000510735465523382
"2205",0.00588454806509853
"2206",0.0559819124853081
"2207",0.0579861935726413
"2208",0.000446305079373599
"2209",0.857220336325243
"2210",0.473140733974029
"2211",0.13216920407084
"2212",0.178066389555557
"2213",0.580110526678639
"2214",0.0239821189857253
"2215",0.312046371023329
"2216",6.68008228721373e-06
"2217",0.555482314763978
"2218",0.00178223579505832
"2219",9.5740653183185e-09
"2220",0.00228875504863235
"2221",6.20827778963218e-07
"2222",0.141122922263741
"2223",0.931137119440406
"2224",0.00589019033573934
"2225",0.12440649349278
"2226",0.0870745437083164
"2227",9.26278894319843e-06
"2228",9.32275573459762e-05
"2229",0.302341600005646
"2230",0.0173401685316453
"2231",8.52879917800919e-08
"2232",0.00600545590862078
"2233",0.550506378423362
"2234",0.156766471574315
"2235",0.0892300619147574
"2236",0.0886612060651462
"2237",0.00219418459898668
"2238",0.000341105046255508
"2239",0.335389962247285
"2240",0.551994409667997
"2241",0.259632527113667
"2242",0.0742786609969882
"2243",0.227967207888982
"2244",0.817496818483635
"2245",0.0351455041582837
"2246",0.313163560789063
"2247",0.195071173638025
"2248",0.185393208647855
"2249",0.00866229875566615
"2250",0.386865424389709
"2251",0.00323991909873556
"2252",0.346348643985837
"2253",0.703863816091026
"2254",0.0440636609916577
"2255",0.000245348745034901
"2256",0.983610984480538
"2257",0.0598923296282141
"2258",0.223073855740716
"2259",0.464316966176724
"2260",0.694148133773148
"2261",0.45659350253347
"2262",0.0113172949215724
"2263",0.520371929286321
"2264",0.431384290377812
"2265",0.00499040124472394
"2266",0.197493090115859
"2267",0.13098810962688
"2268",0.775855464844482
"2269",0.532440873039399
"2270",0.00344866472469907
"2271",0.2078821819765
"2272",0.0218368063103095
"2273",0.422010845999088
"2274",0.844936491084601
"2275",0.0924039669627393
"2276",0.00206440805268804
"2277",0.406255935622454
"2278",0.335289784193218
"2279",0.756469704496645
"2280",0.0599810531732985
"2281",0.00971559875358563
"2282",0.410723882380979
"2283",0.301438729681994
"2284",0.0317372610167259
"2285",0.123314843561395
"2286",0.36534047077481
"2287",0.00023134890347698
"2288",0.244116168076082
"2289",0.114595720513653
"2290",0.581049363788661
"2291",0.00590336553045545
"2292",0.0460528004743253
"2293",0.00313410308366957
"2294",0.0548285184100128
"2295",7.40689461344868e-05
"2296",0.169960006470338
"2297",2.75288470611423e-05
"2298",0.158506087584118
"2299",0.0214075118428144
"2300",0.20706148107075
"2301",0.406876139211197
"2302",0.790394564158174
"2303",7.02517579098672e-06
"2304",0.00827878264808235
"2305",0.0790491273647616
"2306",0.0518638432023946
"2307",0.0624242603930563
"2308",0.52692308534413
"2309",0.037790852547178
"2310",0.0633933408286717
"2311",0.0678808376631839
"2312",0.0297251672273178
"2313",0.0107955034118451
"2314",0.000221296496790591
"2315",0.409444976593732
"2316",0.495778126237685
"2317",0.000121300321945794
"2318",0.166733466275598
"2319",3.39243983438209e-06
"2320",0.0243254819805232
"2321",0.00124690987486697
"2322",0.216641831102044
"2323",0.848806521167669
"2324",1.40463824304105e-05
"2325",0.465304634586589
"2326",0.000549227958544618
"2327",0.000406928722221367
"2328",0.102980814942245
"2329",0.0207507953744103
"2330",0.0525433047351596
"2331",0.238067422405735
"2332",0.000198975663282419
"2333",0.771269373931019
"2334",0.114226269258782
"2335",0.104536361266443
"2336",0.746038952895842
"2337",6.76162243568035e-05
"2338",0.0304272375025818
"2339",0.804201137557876
"2340",0.00374746011754279
"2341",0.963530737431641
"2342",0.654073875219475
"2343",0.854562316292301
"2344",0.328887408937818
"2345",0.00558966150011564
"2346",0.126249538995953
"2347",0.00176827406899094
"2348",0.171230844966778
"2349",0.00442299072084495
"2350",0.792763212254605
"2351",0.564780423989234
"2352",0.797060056165868
"2353",0.623754214170188
"2354",0.220147262670131
"2355",0.404319640140143
"2356",0.341871828529208
"2357",0.0657712349267745
"2358",0.477644812031305
"2359",0.247234306347515
"2360",0.157110742033342
"2361",0.167526234775666
"2362",0.0103116069369018
"2363",0.297195006782758
"2364",0.00803436414472136
"2365",0.621367681583804
"2366",0.577787366701863
"2367",0.000461458116291391
"2368",1.11387389867268e-07
"2369",0.000468321082966683
"2370",3.33066907387547e-16
"2371",0.844227141536723
"2372",8.6994113375205e-06
"2373",0.981351454704431
"2374",0.23284713788584
"2375",0.179940191261916
"2376",0.521730322438213
"2377",0.268744661265258
"2378",0.0196880131829184
"2379",0.150551567486455
"2380",0.201212403921012
"2381",0.150212244884533
"2382",0.929844032448788
"2383",0.694647347549676
"2384",2.25139986986811e-07
"2385",0.19991853639097
"2386",0.600883384823037
"2387",0.891899667457424
"2388",0.763292109459056
"2389",0.998409392596948
"2390",0.471056634288534
"2391",0.518022935281916
"2392",0.729904075451705
"2393",0.14733351508328
"2394",0.444650000911324
"2395",0.799825624930283
"2396",0.310560106601535
"2397",0.996640275961016
"2398",0.135850249664592
"2399",0
"2400",3.84287301979924e-09
"2401",0.529702397696676
"2402",0.0061309814278977
"2403",0.476370660082094
"2404",0.187007881228775
"2405",0.00127805672250958
"2406",0.220500811139382
"2407",0.00271941566858702
"2408",0.00912745169514628
"2409",0.000858952852134665
"2410",0.000245597808521514
"2411",0.00246964801969518
"2412",1.96350713466131e-10
"2413",0.191960891895021
"2414",0.00396536787191426
"2415",0.0216249458342518
"2416",5.46453585714701e-08
"2417",1.7131777774182e-08
"2418",0.000673839033991985
"2419",1.65897493508149e-05
"2420",2.54867751914301e-06
"2421",3.09483543137201e-06
"2422",0.887782196437943
"2423",0.52487364350926
"2424",0.125985353076897
"2425",0.767287683983203
"2426",0.112485934766367
"2427",0.913252903455327
"2428",0.943536198017686
"2429",0.870506803141836
"2430",0.137387045236339
"2431",0.28351811010384
"2432",0.867213865824632
"2433",0.985893327078579
"2434",0.0803201355127814
"2435",0.780133663606998
"2436",0.0522180687367997
"2437",0.524255869340732
"2438",0.568709240354934
"2439",0.570087182987041
"2440",0.873150850035666
"2441",0.103853149624799
"2442",0.363829199090118
"2443",0.506841066333838
"2444",0.788584909772577
"2445",0.0287290780339262
"2446",8.46775470386696e-06
"2447",0.946081708100958
"2448",0.170832341049669
"2449",0.0143632674515384
"2450",0.863075042488213
"2451",0.762738079317471
"2452",0.320543049792173
"2453",0.0600062962735786
"2454",0.0888377503482994
"2455",0.904269995451276
"2456",0.454703834701862
"2457",0.503447322681008
"2458",0.231330024215734
"2459",0.183854691964197
"2460",0.904915468423982
"2461",0.946502305622505
"2462",0.38984282033334
"2463",0.588670694198978
"2464",0.3507407828143
"2465",0.136277211024105
"2466",0.651721718047989
"2467",0.539633917206904
"2468",0.114195357694767
"2469",0.00129315132003816
"2470",0.940521632644634
"2471",0.575501652335073
"2472",0.309168726539748
"2473",0.524250916637773
"2474",0.480949508603344
"2475",0.0837242747298741
"2476",0.97110939994152
"2477",0.246636510498878
"2478",0.710627783979965
"2479",0.000171081454146016
"2480",0.383052487098455
"2481",0.167992506972124
"2482",0.522268322486431
"2483",0.000760098752890848
"2484",0.630208110355858
"2485",0.71334636999023
"2486",0.936849605419275
"2487",0.0738665751436521
"2488",0.637214270571254
"2489",0.0565088950784481
"2490",0
"2491",0
"2492",2.70816746406055e-05
"2493",0.115768144305178
"2494",0.00108369337699143
"2495",0.888522800999442
"2496",0.00572976820033533
"2497",0.000209421197440274
"2498",8.65973959207622e-15
"2499",0.156876948073473
"2500",1.69439573483032e-10
"2501",0
"2502",1.41612496173948e-08
"2503",3.14903658704679e-12
"2504",1.89860904775685e-09
"2505",9.09924735243983e-05
"2506",0
"2507",4.28235225058415e-12
"2508",1.17614473715832e-10
"2509",2.97639357604851e-10
"2510",1.12798659301916e-13
"2511",4.00771331054983e-06
"2512",0.00250773783401603
"2513",0.0013989857966169
"2514",0.000981157717448444
"2515",3.10524267299606e-07
"2516",1.67071911860717e-11
"2517",3.36703133263505e-07
"2518",0.00011498602819382
"2519",2.46656917113341e-10
"2520",9.67104396565333e-10
"2521",3.19400061954411e-12
"2522",7.51350093253222e-11
"2523",0.0439700403397649
"2524",0
"2525",9.05563402042731e-11
"2526",1.33952219538713e-07
"2527",0.00149210056447291
"2528",3.33066907387547e-16
"2529",3.2435123475949e-08
"2530",1.43293155119295e-11
"2531",1.28245225550216e-08
"2532",1.41162665334704e-07
"2533",9.99200722162641e-16
"2534",5.81137405419874e-05
"2535",0.00696748540297853
"2536",1.00046537720999e-09
"2537",2.59086490927984e-07
"2538",0.0020517708298653
"2539",5.25819165986263e-10
"2540",4.2854608750531e-14
"2541",0.000177232623486567
"2542",1.29461108500095e-10
"2543",1.95319171947261e-09
"2544",0.000800256004219513
"2545",1.31357566046653e-06
"2546",3.23282056680085e-09
"2547",3.12055659912325e-06
"2548",1.59875446215096e-11
"2549",4.61253503170056e-08
"2550",1.47659662275146e-12
"2551",5.97852878314598e-11
"2552",0.000217051513538458
"2553",1.30092226990897e-07
"2554",1.0760281554667e-12
"2555",8.79263628572602e-09
"2556",5.55111512312578e-16
"2557",1.37934108579429e-12
"2558",1.17403747723621e-07
"2559",0.00024178893426885
"2560",3.71825501699341e-06
"2561",1.37128317589941e-08
"2562",6.03302968693598e-08
"2563",5.05211983359288e-10
"2564",0
"2565",9.01890361060254e-07
"2566",3.41282557769773e-13
"2567",0.000115911062744778
"2568",6.19013043479111e-06
"2569",0.0167149163920716
"2570",0.0453966573763621
"2571",0.00151949173011823
"2572",0.208841545160665
"2573",0.394485809921006
"2574",0.000364533986551452
"2575",4.38768838153525e-05
"2576",0.48517289419737
"2577",0.47829087287962
"2578",0.00281305567898549
"2579",0.0291327823431049
"2580",0.00509542481282821
"2581",0.0165908809341613
"2582",0.11127331399362
"2583",2.54394727505769e-10
"2584",3.89874257844536e-06
