"","x"
"1",0
"2",0
"3",5.39730593551724e-10
"4",0
"5",1.59130996987278e-05
"6",0
"7",0.000889692229128602
"8",1.45661260830821e-11
"9",0.000695846247548926
"10",0.934746431500133
"11",0.99874848088807
"12",0.242962001870191
"13",0.0429256638583408
"14",0.00933063953414992
"15",0
"16",0.830048241671661
"17",3.02044614541863e-07
"18",0.0145623128276419
"19",0.473293751432214
"20",0.265051844797356
"21",0.306212189230714
"22",0.87589193227251
"23",0.329346552899274
"24",0.0243349649783562
"25",0.0119295834488226
"26",0.000693481806843477
"27",0.310535776616555
"28",0.884789707604255
"29",0
"30",0
"31",0
"32",1.10444986489711e-12
"33",0.00184896819706126
"34",4.5380488256086e-10
"35",0.0442254969925044
"36",0.000363110383627463
"37",0
"38",0
"39",0.671434405041279
"40",0.312667792850125
"41",0.0125234611412037
"42",0.0133593328997139
"43",0.0198210087871737
"44",0
"45",1.09869945807972e-07
"46",0.159717077653462
"47",0.270988476937957
"48",0.101410301003246
"49",0.00675257496091708
"50",0.378666031473057
"51",0.00650585781079216
"52",0.994951669774854
"53",0.183382230128782
"54",0.100315742850813
"55",0.570222472566086
"56",0.800766348572123
"57",0.0936464998914825
"58",0.00318207739616438
"59",0.00603851900007513
"60",0.748908509705268
"61",0.0283684055835791
"62",0.0126441210685079
"63",0.286236779989065
"64",0.121155319854676
"65",0.0846411547737833
"66",0.136022485054846
"67",0.0227894256246112
"68",0
"69",4.48656332011632e-05
"70",0.00392073996964815
"71",0.264370226616024
"72",0
"73",0.0609456478481614
"74",0
"75",0.468036900436547
"76",0.662859962249127
"77",0.0168168808296781
"78",0
"79",0.892692962705042
"80",0.640603974689974
"81",0.0677300078521932
"82",0
"83",0
"84",5.82681714367261e-05
"85",0.982211909223772
"86",0
"87",0.508933343502329
"88",0.000553822044288776
"89",0.000878399698949428
"90",0
"91",0
"92",6.42055630883931e-10
"93",0.0867597294454202
"94",0.113375588311265
"95",0.275880069841643
"96",0.00248600054990256
"97",0.010170995798212
"98",0.00295755185537472
"99",0.870997197329371
"100",0.000806636020275309
"101",0.00710524082880426
"102",0.0117522860941158
"103",0.00601098921663312
"104",0.561488516409208
"105",0.000178392569917696
"106",0.441551316830066
"107",0.463422924798839
"108",0.0245616165957508
"109",0.00130627250667947
"110",0.000333111722266577
"111",0.0157867687637987
"112",0.0580513575837242
"113",0.00244765118525148
"114",0.22559229717781
"115",0.173536628948658
"116",0.0212594385129611
"117",0.00680342995813099
"118",0.011295844699633
"119",0.00601151969152713
"120",0.00216563214906185
"121",0.00621584003746911
"122",0.960092765068917
"123",2.00882804723967e-07
"124",0.00835117239533356
"125",0.0152421686012559
"126",0.00331047964388487
"127",6.85857791450362e-05
"128",0.00121017142552682
"129",0.0104136829193505
"130",0.00669356325973147
"131",0.0888803806808914
"132",0
"133",0.0961444244059935
"134",0.00339809101245825
"135",3.89546843631017e-05
"136",3.10864445296488e-09
"137",0
"138",5.40039934993075e-08
"139",1.6934579427641e-07
"140",0.00736886891391897
"141",0.00515609150765295
"142",0.00152606834263824
"143",0.0495217917584529
"144",1.47986622955898e-10
"145",0.269266812479553
"146",0.00445170854436838
"147",0.0211592294129647
"148",5.84094205122732e-05
"149",0.218195604002546
"150",0
"151",0.107686978794873
"152",0.0120792140080908
"153",0.734966106175795
"154",0.243993062892125
"155",0.002627623819486
"156",0.0197496188874757
"157",0.000951685448823625
"158",0.000469738119951657
"159",0.0322895242836773
"160",0.000861776850448748
"161",0.00278378148642444
"162",0.062739311553035
"163",0.470708923933417
"164",0.0533454444424937
"165",0.00760957090089964
"166",2.34760128283718e-05
"167",0
"168",0.669368082959472
"169",0.249560855178022
"170",0.384070826741604
"171",0.1782862805488
"172",0.00555926013785002
"173",0.000266731376753482
"174",0.00163610799566294
"175",0.089405601890749
"176",0.207575916865794
"177",0.130852540666044
"178",0.0104982679499973
"179",0.00968083362674499
"180",0.0222451537199504
"181",0.132145965901145
"182",0.0461508004226575
"183",0.0883464912854888
"184",0.0132420270040532
"185",0.490820133267456
"186",0.148878674565554
"187",0.00658171118549655
"188",0.0138292088061374
"189",0.462178031926707
"190",0.00259287677304398
"191",0.878535077131329
"192",0.0034582681609161
"193",0.00940199977630807
"194",0.00258359480244674
"195",0.601602225148986
"196",0.279798339058281
"197",1.31158263316777e-06
"198",0.0543767392785226
"199",0.259736895612791
"200",4.79115659032248e-05
"201",5.23174837436802e-05
"202",0.217975549643926
"203",0.204205490222286
"204",0.0464343163106796
"205",0.36675749074116
"206",0.0215404559119745
"207",0.864908405963869
"208",7.67411053148592e-07
"209",0.0803753632341917
"210",0.0154216939215155
"211",0.0382257342251132
"212",3.71225958742949e-05
"213",0.00535601019996002
"214",0.0593173944538438
"215",0.00120832698099371
"216",1.67278899700918e-05
"217",0.0471210307081898
"218",0.556246659627895
"219",0.00263119316318838
"220",0.039067958652351
"221",0.0257555699337999
"222",0.0239302620759517
"223",0.0535082168158484
"224",0.0742352386376486
"225",0.0376446446915947
"226",0.000235824500657067
"227",0.00171920324295727
"228",0.0919815592058357
"229",0.0395149101852351
"230",0.028267334670465
"231",0.0718959621518968
"232",0.0973503800623058
"233",3.17398606577424e-05
"234",0.207712075272491
"235",0.881001763748197
"236",0.540627972531352
"237",0.695312954383444
"238",0.116711279519071
"239",0.0163523455330704
"240",0.000948075448434782
"241",1.3414937376055e-05
"242",0.000187454957024435
"243",0.0583404446626671
"244",1.69817815746098e-05
"245",0.0725269873193772
"246",1.53570485994514e-07
"247",0.137323040118688
"248",1.0071156131275e-08
"249",0.125749887221161
"250",5.23912323704412e-05
"251",0.000820211745138355
"252",0.00302131064868538
"253",1.56278199769933e-05
"254",0.0668725410906966
"255",8.65442362218971e-09
"256",9.5005713387053e-05
"257",9.6479094474633e-06
"258",0.000886366241094283
"259",3.59381919778912e-08
"260",0.19067751931956
"261",0.00173711741098148
"262",0.000226009192414112
"263",0.0127924360356395
"264",1.60274044058717e-06
"265",0.0231061716512827
"266",0.0158447330345702
"267",0.000333714477104174
"268",2.56086777450371e-06
"269",0.000668952583886551
"270",0.000532861208382474
"271",0.00212409566095595
"272",0.0116065004943771
"273",0.0123807671318679
"274",1.4708817497322e-09
"275",2.22044604925031e-15
"276",0
"277",0
"278",0.00137788919539783
"279",0.0506687007108982
"280",0.00269363377482457
"281",0.143470323033769
"282",0.0531529886538715
"283",0.00010600713910458
"284",0.735136285170301
"285",0.182108679130811
"286",0.677834129707082
"287",0.0611389565100272
"288",0
"289",0.802163703894856
"290",0.0159167484162612
"291",0.521319497398276
"292",0.0131348090757728
"293",0.0932720903305091
"294",0.0345399597867145
"295",0.481451487044787
"296",0.0713891289970672
"297",0.727699870001606
"298",0.102660740891506
"299",0.330987050524716
"300",0.711998607631024
"301",0.115688124370753
"302",0.0675816981954884
"303",0.0514144262901336
"304",0.595934886456924
"305",0.957205534547817
"306",0.530024512366548
"307",0.597900507632974
"308",0.75786064313751
"309",0.196499508133999
"310",0.721752041962453
"311",0.798474667055964
"312",0.0493985693192026
"313",0.0026013115862964
"314",0.0705075010998607
"315",0.0582708896169829
"316",0.194803014029264
"317",0.823570261803171
"318",0.05135412507864
"319",0.241024204966866
"320",0.774469268677803
"321",0.678079739820992
"322",0.0547210309728663
"323",0.0218113358781741
"324",0.401014586918194
"325",0.937267866226308
"326",0.438770111020627
"327",0.477070051529909
"328",1.0801803895788e-11
"329",0.10778137112933
"330",0.660609993845376
"331",0.207583744077034
"332",0.470953769167862
"333",0.0901502802910527
"334",0.000270876027963496
"335",0.791063351601058
"336",0.185417948157724
"337",0.853423886620763
"338",0.644536845124899
"339",0.098993691157519
"340",0.0864679150354624
"341",0.542369102040932
"342",0.224865535357252
"343",0
"344",5.55111512312578e-16
"345",0.113842681425853
"346",0.00010718564591905
"347",6.09729554845728e-07
"348",0.0168147989796371
"349",0.00231879201910512
"350",1.63004076902951e-09
"351",1.11508327202969e-05
"352",1.26676627631994e-07
"353",3.95877219894203e-10
"354",0.00157595787096976
"355",1.23061053123319e-05
"356",2.62954175433983e-07
"357",1.00918200613975e-05
"358",4.40969663895174e-07
"359",0.00268308124507322
"360",3.705258322384e-12
"361",8.15947512888826e-08
"362",3.00315328161105e-13
"363",1.43771455352049e-06
"364",8.88178419700125e-16
"365",9.12329736202366e-08
"366",0
"367",6.55031584528842e-15
"368",6.13542194827232e-09
"369",0
"370",1.56353852087676e-09
"371",0
"372",4.6729019065328e-07
"373",9.99200722162641e-16
"374",2.86009882444205e-10
"375",1.3332541559663e-07
"376",5.21424922128588e-08
"377",5.85809178943464e-12
"378",4.77724082514897e-10
"379",1.77635683940025e-15
"380",0
"381",1.08801856413265e-14
"382",5.58940528527785e-07
"383",0
"384",1.64535052249448e-13
"385",2.01632044394273e-11
"386",0
"387",1.78036474451915e-11
"388",2.34151023015272e-08
"389",2.24775753565609e-11
"390",9.16203313217068e-09
"391",6.63068122630506e-09
"392",2.6043365797257e-08
"393",3.11441837874682e-08
"394",1.27945432026877e-11
"395",6.64246435633231e-13
"396",1.71689307215672e-09
"397",6.09751645408441e-06
"398",1.66355818009833e-12
"399",2.20676432682865e-09
"400",9.9702801570345e-11
"401",0
"402",3.10435011030563e-11
"403",6.61382060229698e-12
"404",0
"405",0
"406",1.33226762955019e-15
"407",2.44337883259504e-12
"408",0
"409",2.91100477056716e-13
"410",2.22044604925031e-15
"411",0
"412",1.08854725233698e-09
"413",2.49469778168532e-08
"414",8.46656078579144e-13
"415",0
"416",0
"417",3.33066907387547e-16
"418",6.66133814775094e-16
"419",8.68671001796884e-09
"420",3.28026494855749e-12
"421",2.22044604925031e-16
"422",0
"423",0
"424",1.22124532708767e-15
"425",1.75748304798162e-13
"426",1.47881706880071e-13
"427",2.97539770599542e-14
"428",0
"429",7.26940729833814e-12
"430",1.92065515713935e-08
"431",1.11022302462516e-16
"432",0
"433",8.70633565241974e-11
"434",0
"435",3.33066907387547e-16
"436",2.22044604925031e-16
"437",1.76975926025058e-07
"438",0
"439",0
"440",0
"441",0
"442",0.0734899544607591
"443",0
"444",0.0640764722505203
"445",0.538689736693553
"446",0.348983601325203
"447",0.652976985947924
"448",1.32593844346385e-05
"449",0.569172668807808
"450",0
"451",1.34025535114546e-09
"452",0.406076467724882
"453",0.326908846694263
"454",0.0474710798328462
"455",0.0584945017932271
"456",0.0068140417307142
"457",0.00249193425616601
"458",0
"459",0.0120499230450324
"460",0.00391065169387628
"461",0.405829642109487
"462",0.0190802127580724
"463",0.00113468972484543
"464",0.0104478935351503
"465",0.00159353243196003
"466",8.77766435862792e-05
"467",0.10345429043686
"468",8.01330915956022e-07
"469",0.298847114515796
"470",0.872203345937869
"471",0.0751754037596928
"472",0.0156885752663556
"473",0.00607496212564607
"474",0.470039020000259
"475",0.807518916700701
"476",0.629752410306999
"477",0.341942080174444
"478",0
"479",9.88183357364392e-09
"480",0
"481",0.0568479524840035
"482",0.0608524701347772
"483",0.0491097262602455
"484",1.21931987062673e-07
"485",0.27743169735127
"486",0.209752475256594
"487",0.013805698569114
"488",0.497106532986689
"489",0.000425702892947855
"490",0.137543008744838
"491",0.0454686977028751
"492",0.578166554250708
"493",0.110251982180455
"494",0.471298991522873
"495",0.459073593778663
"496",0.707266343363261
"497",0.00358224020732589
"498",0.00791968756938055
"499",0.0026033894732399
"500",0.35491965210142
"501",0.268010116646139
"502",0.825387294725099
"503",0.393019378522498
"504",4.87846429919614e-11
"505",0.725376713154729
"506",0.00693370523538994
"507",0.0778641963168887
"508",0.190448131957835
"509",0.0970726773545338
"510",0.0475595485765252
"511",0.887501523450263
"512",0.419185108799342
"513",0
"514",0.172941394273083
"515",0
"516",0.356503675841092
"517",0.673608350661856
"518",1.92013072108921e-12
"519",0.00010576995812539
"520",0.085898877022109
"521",0
"522",0.00419675518684637
"523",0.0172056841192041
"524",0.322038429689916
"525",0.812979442170945
"526",0.00651784042535852
"527",0.157379077639986
"528",0.0581723377558814
"529",0.00428236152733386
"530",0.0605469146716221
"531",3.20585319291133e-06
"532",2.1520563109334e-12
"533",0
"534",0
"535",0.464152318746374
"536",0.00614928832785211
"537",0.156450270196716
"538",0
"539",0
"540",0.927426606335216
"541",0.00273244651905125
"542",0
"543",0
"544",4.71141070601533e-09
"545",2.61151933411696e-09
"546",0.000368540299768072
"547",0
"548",0.0882374906834448
"549",0.0091537770987884
"550",0.0365535274502008
"551",0.166784689285413
"552",0.00124596615715533
"553",0.000773459226526163
"554",9.39488462770033e-06
"555",0
"556",0.157430321860875
"557",0
"558",0.544056538935801
"559",0.725275203064895
"560",1.76898495851674e-11
"561",0.39813615730378
"562",0.0229869467947383
"563",0
"564",0
"565",0.608871288403001
"566",0.745008182126127
"567",0
"568",0.269115824125606
"569",0.0312414814210596
"570",0.0378606122571405
"571",2.5320697335407e-05
"572",0
"573",7.24528791407053e-08
"574",0.00482141919542611
"575",0
"576",0
"577",0
"578",0
"579",0
"580",0.673365755242016
"581",0.2323033272501
"582",0.860327545808589
"583",0
"584",0
"585",0.00486222085266652
"586",0.308954750326983
"587",0
"588",0
"589",0
"590",4.56456240582881e-08
"591",0
"592",0
"593",0.57558752603422
"594",0.0322927325459434
"595",0
"596",0
"597",5.02806436323278e-05
"598",0.00723319196741368
"599",0.038552227939565
"600",0
"601",0
"602",1.58206781009085e-13
"603",4.61438104393253e-08
"604",0.333126593256093
"605",0.0350814378029833
"606",0.679453559632386
"607",0.746127306942102
"608",0.044634028522291
"609",0.446800911570038
"610",0
"611",0.131762862952345
"612",0.000541515672656923
"613",2.85143209655114e-06
"614",3.99680288865056e-15
"615",0.922715754851842
"616",0.434085783526144
"617",0.0963152761697212
"618",0
"619",0.510860121959727
"620",5.65647528816271e-12
"621",0.27566226110336
"622",0.0429438785079442
"623",0.482081802874176
"624",0.00465209992183124
"625",0.611386002589547
"626",0.00833250279205922
"627",0
"628",0.0812803329444347
"629",0.632733017902009
"630",0.301258069040207
"631",0.191664026625625
"632",8.35063251636292e-05
"633",2.63486268470281e-07
"634",0.999668942262509
"635",0
"636",0.178218043076022
"637",0
"638",0.00068106387711675
"639",0
"640",0.0409084054380199
"641",0.64557175212524
"642",0.291752348128453
"643",0
"644",0
"645",0.727961972242016
"646",0.680681154947113
"647",0.804645734460441
"648",0.324260587091211
"649",0.240380303913148
"650",0.026385152854286
"651",0.620843876466773
"652",0.455013408248321
"653",2.56363062789422e-05
"654",0.624219556184201
"655",0.624966529871678
"656",0.00179062379688111
"657",0
"658",0.0151314428109565
"659",0.153307664614481
"660",0.953519340314467
"661",0.143437037312575
"662",0.904973312871891
"663",0.153057503225263
"664",0.0731053342371766
"665",0.573438684492415
"666",0.00723792078507079
"667",0
"668",0.8190489642253
"669",0.0922584536404892
"670",0.158346321210909
"671",0.131229183381466
"672",0.573971860814013
"673",0.0177630018732367
"674",0.492299282909837
"675",0.187437335388127
"676",0.538957622693606
"677",0.0170613854056243
"678",0.393232019701906
"679",0.628358572954491
"680",0.254076304208292
"681",0.504100114407092
"682",0.599920341182185
"683",0.873917796203562
"684",0.761153302702882
"685",0.40343129399239
"686",0
"687",0.0112985180111544
"688",0.262384051620753
"689",0.000131044058937158
"690",0
"691",0
"692",2.22044604925031e-16
"693",0
"694",0
"695",0.216098434298373
"696",1.8033785575966e-09
"697",0.735370951765344
"698",0.167424968923401
"699",0.501201667658003
"700",0.0194650672530807
"701",0.00758769900751333
"702",0.000231832556447875
"703",0.00946120285248297
"704",0.000285743943626793
"705",4.36119584347194e-05
"706",1.08553552571333e-05
"707",3.50619655398177e-06
"708",0.000160877923372715
"709",0.0195655693437029
"710",1.21161055066654e-05
"711",1.55508939059246e-12
"712",0.00330908347340098
"713",1.14946829832263e-10
"714",1.48630057816845e-07
"715",6.14399764398144e-09
"716",4.16716940954132e-06
"717",5.76538039531727e-10
"718",1.98864258393883e-11
"719",0
"720",0
"721",0
"722",1.10351816573484e-09
"723",1.99260707933746e-09
"724",0
"725",4.52426984764998e-11
"726",8.88178419700125e-16
"727",4.11559675228546e-13
"728",0
"729",0
"730",1.0769163338864e-14
"731",0
"732",0
"733",0
"734",0
"735",0
"736",0
"737",0
"738",0
"739",2.98668645370981e-10
"740",0
"741",0
"742",1.11022302462516e-16
"743",0
"744",6.82942591367919e-12
"745",7.7715611723761e-16
"746",1.45949918817223e-12
"747",1.4432899320127e-15
"748",6.55031584528842e-15
"749",0
"750",5.79359893393416e-11
"751",1.11022302462516e-16
"752",4.9613646524449e-12
"753",0
"754",4.88498130835069e-15
"755",7.7715611723761e-16
"756",0
"757",1.25277566098703e-12
"758",0
"759",0
"760",1.8969828394777e-06
"761",0
"762",1.77635683940025e-15
"763",3.49510914654516e-08
"764",5.49588152765068e-10
"765",8.99280649946377e-15
"766",5.11404252279135e-11
"767",7.24735582657843e-09
"768",5.70954394873979e-12
"769",4.50750547997814e-13
"770",0.0101325483749067
"771",2.22044604925031e-16
"772",2.81788259393068e-10
"773",4.8246850958833e-11
"774",4.21884749357559e-15
"775",6.21724893790088e-15
"776",2.56680876553617e-09
"777",0
"778",1.97201519491763e-06
"779",1.31006316905768e-14
"780",1.4432899320127e-15
"781",1.11022302462516e-16
"782",1.04697139846621e-10
"783",4.83824091901397e-12
"784",7.23865412055602e-14
"785",9.15571396475912e-10
"786",4.64144278566891e-11
"787",2.17150464276727e-09
"788",6.42065289824245e-11
"789",0
"790",5.10895824968882e-05
"791",7.08316516551122e-10
"792",3.58229002017652e-11
"793",0.00117250383737866
"794",2.46469511466785e-14
"795",9.10382880192628e-15
"796",4.5416987726199e-08
"797",0
"798",5.05690451735319e-07
"799",4.84414730550498e-10
"800",1.05938965377916e-08
"801",3.06791880788637e-09
"802",0
"803",0.815618766216123
"804",0.00549675202986832
"805",0.157585209171472
"806",0.028479571741831
"807",0.0336157278957451
"808",0.192819462354498
"809",0.406612183777463
"810",0.201509184032842
"811",0.00147220403105952
"812",0.212960581434833
"813",0.0014870292428294
"814",0.00184069741574444
"815",0.253621722018563
"816",0
"817",0.00730679413099677
"818",0.230199295764432
"819",0.492904501971461
"820",0.0155294817301971
"821",0.154117451106786
"822",0.0454569824229889
"823",0.00927992358965124
"824",0.183941609702083
"825",0.000168594569980973
"826",0.0244513126896012
"827",0.329362244912125
"828",0.167926346623487
"829",0.0553809394041997
"830",0.00932821093488245
"831",0.000344758300712011
"832",0
"833",0.650057898453869
"834",6.37201944542198e-08
"835",0.000654005606128716
"836",0.819389561764662
"837",0
"838",0.106079046685154
"839",0.867222131872727
"840",0.0279735569829843
"841",0.00305699747808175
"842",0.00571666276234872
"843",0.00893580990096254
"844",2.59571208971465e-09
"845",0.453779845791351
"846",0.00036208124224979
"847",0.367423162381223
"848",0.874202224457824
"849",0.351570212458972
"850",0.000133916731826167
"851",0.00230113901858497
"852",2.65474094929274e-08
"853",0.073476593810381
"854",0
"855",2.82835099563172e-07
"856",1.38773998464847e-05
"857",0.0333493275308268
"858",0.043580346944166
"859",0.228508121326249
"860",0
"861",0
"862",0.424624601540294
"863",3.04399838668701e-11
"864",0
"865",0.328250464721824
"866",0.00275080599569955
"867",0.0214829405311717
"868",0.045301903501174
"869",0.104384554706898
"870",0.149285280933524
"871",0.116019685678253
"872",0.000515079112860528
"873",6.58768872530135e-05
"874",0.0514115860980369
"875",0.290494373871245
"876",8.19832974618961e-07
"877",0
"878",0
"879",2.90489249421544e-06
"880",2.39298312276759e-08
"881",0.407469326833402
"882",0.980596276737841
"883",0.392880654147925
"884",0.158443648312866
"885",0.0946348492347064
"886",0.218306067522088
"887",9.6419269046244e-05
"888",0.790478606275728
"889",0.0418849703956259
"890",0.511761886823031
"891",0.314875764729413
"892",0.0615106243908242
"893",0.0162443371047656
"894",0.0420187989985722
"895",0.030481373289131
"896",0.656480344696194
"897",0.863437447727135
"898",0.000119110914561182
"899",0.219858134458601
"900",0.431107501164227
"901",0.00986201887602656
"902",0.0204010879506799
"903",7.28722505893842e-07
"904",0.00336984146056718
"905",0.207492971899484
"906",0.0854960476035554
"907",0.51969377337975
"908",0.00588685512142018
"909",0.0806236930801073
"910",0.181150717655475
"911",0.137786791780146
"912",0.0750913747419886
"913",0.111456260531709
"914",0.279816514406738
"915",0.208589077937324
"916",0.567042145601206
"917",0.486789112374357
"918",0.254612709174857
"919",0.19296923709921
"920",0.613650221420816
"921",0.00208977801799992
"922",0.366626782682699
"923",0.0238341390763027
"924",0.01291001900212
"925",0.0141083339850409
"926",0.0350578202739629
"927",0.561640652893218
"928",0.114837159321468
"929",0.000238692345977398
"930",1.19175155338658e-05
"931",0.0214696368463474
"932",6.59979880635042e-07
"933",0.0119073230581128
"934",0.00905457271251087
"935",0.00760552032590112
"936",1.29990650155065e-06
"937",0.106631728410621
"938",0.45631175111985
"939",0.0215502611027724
"940",5.85853521994917e-06
"941",3.61314755892295e-10
"942",0.00117417298472444
"943",0.00709805326159629
"944",0.00607440907503387
"945",0.00893355458425915
"946",0.0175480371667603
"947",0.00287844400403969
"948",0.0631179641319901
"949",0.0460657178639171
"950",0.634524458357827
"951",2.86728991549801e-07
"952",0.102761580292298
"953",0.987061231789311
"954",0
"955",9.42002811310516e-08
"956",0.461623220317351
"957",0.0599100865065819
"958",6.39388863410417e-06
"959",0.16759086375945
"960",0.0156367890477938
"961",0.0696694136292429
"962",0
"963",0.000214747859452746
"964",0.194741743873105
"965",0
"966",3.04035652687329e-06
"967",2.34709244969489e-05
"968",0.102939877482791
"969",0.205401943521247
"970",0.223296133502954
"971",0.00688123445267708
"972",0.0225391303811979
"973",0.230263373162969
"974",0.310785014937829
"975",0.0834388086284352
"976",0.0246921978286353
"977",0.147246259318649
"978",0.0359185938014897
"979",0.122198666494118
"980",0.555881183396376
"981",0.155731006484713
"982",0.987624586726999
"983",0.743174675614279
"984",0.276201470490828
"985",0.0815601382834948
"986",0.300401911118737
"987",0.0998821519862527
"988",0
"989",0.000388509866259934
"990",0.40895007720503
"991",0.517303746708848
"992",0.299456846915075
"993",0.146194186552782
"994",0.00545085782110699
"995",0.844555509675915
"996",0.898593513479098
"997",0.982688191613883
"998",0.00968758533585179
"999",0.0301889527665644
"1000",2.86004553373687e-12
"1001",0.000957769717116919
"1002",0.234402488260368
"1003",0.107271649445749
"1004",0.00449392453016406
"1005",0.236242736949575
"1006",0.799485539546189
"1007",0.00148355518931487
"1008",2.07990604583763e-06
"1009",0.125102163491321
"1010",7.25425364223042e-09
"1011",0.374817891358424
"1012",0.0791234440015777
"1013",0.170719579933779
"1014",0.759829483640813
"1015",0.0418782412720752
"1016",0.0608521737544694
"1017",1.15950253584129e-05
"1018",0.00366084585532156
"1019",0.0180480111011816
"1020",0.107100029896919
"1021",3.6294042344398e-05
"1022",0.056043123330635
"1023",0.00556824677889911
"1024",0.0368888950245364
"1025",0.0144790847174168
"1026",0
"1027",0
"1028",0.113288044734745
"1029",0.316555936251772
"1030",0.151289578037229
"1031",0.098940544456587
"1032",0.0877117155270185
"1033",0.34050820373018
"1034",0.151575825022701
"1035",0.132912074657689
"1036",1.69588262732834e-06
"1037",0
"1038",0.512931546602288
"1039",0
"1040",0.102819015733845
"1041",0.0759938419502163
"1042",0.477396010111406
"1043",0.0011332030705733
"1044",0
"1045",0
"1046",0.0172084854211021
"1047",0.00012338965428782
"1048",1.80342188471627e-06
"1049",0.00103327977696266
"1050",0
"1051",2.07605044266757e-11
"1052",0.000663317295066634
"1053",1.9167816993626e-06
"1054",0.311608467852831
"1055",0
"1056",0.320281186617249
"1057",0.518145447932227
"1058",0.00425700863192369
"1059",0.95950339627295
"1060",0
"1061",0.000463957312003882
"1062",2.39264164036967e-12
"1063",0.000925138310354456
"1064",0.0174379348415068
"1065",0.00186136455647379
"1066",0.712389888514962
"1067",0.000818797483740696
"1068",0.433676982467602
"1069",0.010274008937819
"1070",1.11022302462516e-16
"1071",3.11755277149217e-09
"1072",0
"1073",0
"1074",2.87927959086165e-06
"1075",0.0172843816338936
"1076",0.0519475916557853
"1077",0.000201661177925305
"1078",0.0456869302635395
"1079",1.51454611108104e-06
"1080",0.981568384629131
"1081",0
"1082",0.00522198613604297
"1083",0.274386568246843
"1084",0.0144336145536111
"1085",2.51613538226891e-07
"1086",0
"1087",0
"1088",0.10617588311913
"1089",0.445240429825464
"1090",4.5042036767029e-10
"1091",0
"1092",0.0197008363304598
"1093",0.00671102507887689
"1094",0.264785866272195
"1095",0.769272739183054
"1096",1.0564771536048e-05
"1097",0.4717850786445
"1098",0.039600190786254
"1099",0.00844252168658788
"1100",0.000359644147156279
"1101",0
"1102",0
"1103",0
"1104",0
"1105",0.264996383759586
"1106",0.548441953300396
"1107",8.73002279394575e-05
"1108",5.38991073995021e-12
"1109",6.8864835012894e-05
"1110",0.282021189134395
"1111",1.11022302462516e-16
"1112",0.175538186887527
"1113",0.782674944340279
"1114",0.313658869318851
"1115",0.00171620994932864
"1116",0.334576120182642
"1117",2.55351295663786e-15
"1118",0.00257588813420273
"1119",0
"1120",0
"1121",6.0410356717e-09
"1122",0.505165049275422
"1123",0.236182073102103
"1124",0.13044245462987
"1125",0
"1126",0.660457311633481
"1127",0.0116264506087763
"1128",0.465265513391086
"1129",0.335162212892817
"1130",0
"1131",0.416771592218919
"1132",0.000104012794436836
"1133",0
"1134",0
"1135",0.764551493330627
"1136",0.0771399250623914
"1137",2.18713935851156e-13
"1138",0
"1139",3.33066907387547e-16
"1140",7.31636973227978e-14
"1141",0.000194858988914026
"1142",0.00406143539547787
"1143",0
"1144",5.20588984642689e-06
"1145",0.335491294895171
"1146",0.0275055444146021
"1147",0.00193389938724653
"1148",0.00418169193332685
"1149",6.32372076184717e-05
"1150",0.0190442832498402
"1151",0
"1152",0.0240530102364938
"1153",0.00069575751783757
"1154",0.000536908471304276
"1155",0.928073757939849
"1156",0.235322101817598
"1157",0.419821639753555
"1158",0.156243927376966
"1159",0
"1160",0
"1161",0
"1162",0.979093930477366
"1163",0.000591753625872271
"1164",0.0713105403389531
"1165",0.0274507434607849
"1166",0.754971787405428
"1167",0.0583565670339302
"1168",0.887145063857925
"1169",0
"1170",2.40566455644853e-10
"1171",1.01619127557129e-08
"1172",0.00137722412341645
"1173",0.114995686599549
"1174",0.236961459042218
"1175",0.0612516471834391
"1176",2.15141373915984e-06
"1177",0.0500993242643162
"1178",0.00268249847586022
"1179",0.156193139315521
"1180",0.0700193459624694
"1181",0.0050688099200934
"1182",1.28254327865784e-05
"1183",0.518358374739821
"1184",3.30928315168677e-05
"1185",0.299975194911219
"1186",0.0038961513993947
"1187",0.000290494445195022
"1188",0.0140303656755251
"1189",0.448079678440622
"1190",0.338719013632467
"1191",0.469066378338418
"1192",0.0523747227981632
"1193",0.404212873501813
"1194",0.000970506724143672
"1195",0
"1196",0
"1197",0.381101510600078
"1198",6.54015003376252e-06
"1199",0.935923400632872
"1200",0.0104649581166981
"1201",0.457824897273042
"1202",0.280530672526631
"1203",0.0755674233377833
"1204",0.00857081847360242
"1205",0.171513380830565
"1206",0.411081711323846
"1207",0.000175223425777027
"1208",0.33384271784565
"1209",0.203504483500451
"1210",0.184131728077005
"1211",0.498792859497064
"1212",0.00812214627424823
"1213",0.000119290245931714
"1214",0.155661684521133
"1215",0.0102685002833278
"1216",0.234050976814222
"1217",0.487441606492688
"1218",0.00889966679319421
"1219",0.206926340864313
"1220",0.349115114122301
"1221",0.38256729884679
"1222",0.00283727959845614
"1223",2.53994957288839e-08
"1224",0
"1225",2.17511325256714e-05
"1226",0.0381819823103873
"1227",0.092257304254696
"1228",0.14036297749895
"1229",0.211864678598262
"1230",0
"1231",0
"1232",0.0117217477502741
"1233",6.29539163391479e-05
"1234",0.0264528362431186
"1235",0
"1236",0.000627823435153108
"1237",0.371225448861433
"1238",0.0211066094978756
"1239",0.0042967228271279
"1240",0.574245125841343
"1241",0.000826149949805455
"1242",0.000725272427352541
"1243",0.0588800736459399
"1244",0.191342397720476
"1245",0.0206586826401086
"1246",0.248712750789471
"1247",0.00412242383146544
"1248",8.70001030529588e-05
"1249",0.0110795362421735
"1250",0.1049368460275
"1251",0.0306497147288266
"1252",7.62690332289928e-06
"1253",0.00937265121844211
"1254",0.0148889055949438
"1255",0.00459166998758131
"1256",0.0307172708959236
"1257",0.028960547266549
"1258",0.011155913303742
"1259",0.00015404541177888
"1260",0.0428032699246337
"1261",0.00454819135377404
"1262",0.539058489794375
"1263",0.54053430904165
"1264",0.228120174379412
"1265",0.00596748698464666
"1266",0.253258002861872
"1267",0.00935977856238435
"1268",0.120995865433118
"1269",0.21523592841623
"1270",0.307494768593288
"1271",0.0757971359872207
"1272",0.0463003569278171
"1273",0.0365357164307212
"1274",0.0627909905605145
"1275",0.00409969919996855
"1276",2.70894418008538e-14
"1277",0.0093744782667029
"1278",0.791073662415438
"1279",0.0029399236605584
"1280",0.208106618883456
"1281",0.00894682110522926
"1282",0.218365827661917
"1283",0.000138378285011731
"1284",0.779037579140215
"1285",0.191605437146253
"1286",0.183938180147155
"1287",0.34712702726695
"1288",0.00419213899363324
"1289",0.0524908814019486
"1290",0.0840116225385348
"1291",0.300705012787524
"1292",0.00659174901656945
"1293",0.00985451148210548
"1294",0.0079104123053233
"1295",0.000345696446491739
"1296",0.0107126449601962
"1297",0
"1298",0.260120027136285
"1299",0.000813571993774742
"1300",0.145696655799738
"1301",1.68094527186469e-09
"1302",0.144930233594737
"1303",0.0469690023161434
"1304",0.0843269420817193
"1305",0.212791047036973
"1306",0.396445381618366
"1307",0.0981389201520257
"1308",0.00163453192773433
"1309",1.01029828947219e-09
"1310",6.68938826042798e-06
"1311",0.491685514212469
"1312",0.000322978381292804
"1313",0.000136294242610968
"1314",0.0897579667072337
"1315",0.000264454992448093
"1316",2.17622611331514e-06
"1317",0.00893579263773203
"1318",0.06507099532275
"1319",0.707400654464682
"1320",0.679622189424304
"1321",0.000860931111027474
"1322",0.75871180543052
"1323",0.529384075767047
"1324",1.79950310208454e-09
"1325",0.84685516672067
"1326",0.0123131473032526
"1327",0.0349777940612304
"1328",1.86971305105033e-09
"1329",0.0737165007052403
"1330",0.115631302278397
"1331",2.3347990207867e-13
"1332",0.0608201780286516
"1333",0.178767844908065
"1334",0
"1335",2.37720954032739e-12
"1336",0
"1337",0.135289203345542
"1338",0.672647109932687
"1339",0.0192698411401858
"1340",0.500598560468926
"1341",0.00041641676869475
"1342",0
"1343",6.45949515387656e-06
"1344",0.722600198579207
"1345",0.868156525024973
"1346",0.0894064240129662
"1347",0
"1348",0
"1349",0.00760920159649903
"1350",0.416245448090316
"1351",0.0111157004491874
"1352",0.00201818745798066
"1353",0.637296886807065
"1354",0.197366435277625
"1355",2.22044604925031e-16
"1356",0.310955571625837
"1357",0.0229644997651343
"1358",0.000448401041855284
"1359",5.62405677584366e-12
"1360",0.655924603952836
"1361",2.56273427697851e-05
"1362",0.0246843232719431
"1363",0.437476398675311
"1364",0.000298461716088383
"1365",0.259622210850091
"1366",0.330616732350046
"1367",0.296150786810393
"1368",0.131034074893883
"1369",0.499923256963309
"1370",0.310020769682858
"1371",0.0144055833634832
"1372",0.0597070350728194
"1373",0.00166236946725151
"1374",9.21519502072865e-06
"1375",0.436426758583252
"1376",0.880128498209703
"1377",0.0558102160718985
"1378",0.0369166681685107
"1379",0.122386389115211
"1380",0.996976011835945
"1381",0.0751349791222079
"1382",0.303487002490617
"1383",0.538661667131142
"1384",0.519758564065652
"1385",0.397970992796682
"1386",0.00519644101226435
"1387",0.849815097815463
"1388",0.242822590861373
"1389",0.418945315547711
"1390",0.714594732745352
"1391",0.152022216003638
"1392",0.449646692901025
"1393",0.293571660495521
"1394",0.0315140095358579
"1395",0.344980249102272
"1396",0.165576767443074
"1397",1.53432822003197e-13
"1398",0.764379959127537
"1399",0.00925620149066764
"1400",0.017063957947848
"1401",0.690057972678849
"1402",0.685323643511225
"1403",0.132384541208907
"1404",0.606003923520891
"1405",0.413232409782044
"1406",0
"1407",0
"1408",0.00097244439183497
"1409",0.0142615365137486
"1410",0
"1411",0.474337623228675
"1412",0.562008693667073
"1413",0.140393151690604
"1414",0.0521538055646966
"1415",0.481098741627634
"1416",0
"1417",0
"1418",0.00288278284858656
"1419",7.88231079026369e-05
"1420",1.43118850104429e-12
"1421",0
"1422",0.0491917605537621
"1423",0.0960268788209325
"1424",0
"1425",0
"1426",0
"1427",0.16234483043078
"1428",0.0560924952881112
"1429",3.78289702562817e-07
"1430",1.11022302462516e-16
"1431",0.000270405389005801
"1432",0
"1433",0
"1434",0
"1435",1.38184761422355e-06
"1436",0.0987873502541045
"1437",7.61686650937454e-05
"1438",0.928558902095031
"1439",0.0403275476932803
"1440",0.0377993224262722
"1441",0.00353162285825714
"1442",0.551627174617721
"1443",0.159506432931542
"1444",0.235346370248287
"1445",0.851177419580753
"1446",0.0454735769194829
"1447",0.327232292892144
"1448",0.00208213573600147
"1449",0
"1450",0.00875538259551167
"1451",0.11908073396567
"1452",6.65737963301272e-06
"1453",0
"1454",0.130586852805569
"1455",0.30969283969991
"1456",0.000852079851556442
"1457",0.122493737557136
"1458",0.0374867863383593
"1459",0.287639870109678
"1460",0.851179562253654
"1461",0.0366622062348182
"1462",0.0131579591522295
"1463",0.0497201275748446
"1464",0
"1465",0.569256002841804
"1466",0.0880693702685413
"1467",0.708417036934627
"1468",0.0785506597675429
"1469",0.227252537613499
"1470",0.0490415096729043
"1471",0
"1472",0
"1473",0.0315189215535596
"1474",0.177177750726538
"1475",0.074852328522213
"1476",5.32204280645487e-11
"1477",0
"1478",0.336004867696846
"1479",0.367878789258727
"1480",0.000834932836454083
"1481",0.175950034393081
"1482",0.0740297666564497
"1483",0.0713436672905944
"1484",0.198367660123129
"1485",5.99520433297585e-15
"1486",0.232950478446785
"1487",0
"1488",0.161279855369689
"1489",0.573987496535278
"1490",0.358655929600691
"1491",0
"1492",0.205213362563311
"1493",0
"1494",0.88306478169747
"1495",0.950957061302648
"1496",0.823858506359799
"1497",0.375541523781298
"1498",0.10206099649672
"1499",0.407550791120746
"1500",0.557253242047539
"1501",0.262190390342093
"1502",0.0269076134566225
"1503",0.474476424473903
"1504",0.0328319096677956
"1505",0.123922245870042
"1506",0
"1507",0
"1508",0.304764057654014
"1509",0.422678499163198
"1510",0.0119838036417322
"1511",0.00670830752902829
"1512",8.70869765190463e-09
"1513",0.209752778576626
"1514",0.223347016845492
"1515",0.143776189769121
"1516",0.162025325974934
"1517",0.0170793108647087
"1518",0.220281532532872
"1519",0.360879612828851
"1520",1.41973745669821e-05
"1521",0
"1522",0
"1523",0.000164597397199984
"1524",0.334797787755919
"1525",0.553056556957333
"1526",0.400540864611315
"1527",0.132861599236257
"1528",0.481021688145851
"1529",0.000341631575191959
"1530",0.103883922453719
"1531",0.408969564194237
"1532",0.620425454461
"1533",0.159981186099002
"1534",0.618733895675756
"1535",0
"1536",0
"1537",0.99999971064079
"1538",9.99200722162641e-16
"1539",0.0058626754046065
"1540",1.19691685529499e-06
"1541",1.65186668543704e-06
"1542",0.0310701596227339
"1543",0.000333808605036734
"1544",1.07119169090453e-09
"1545",3.4683395918611e-06
"1546",1.45077287344586e-05
"1547",0.00452442124385399
"1548",0.0717010577201909
"1549",0
"1550",0.026437537631006
"1551",2.46379868729107e-07
"1552",1.66444635851803e-12
"1553",0.000122680070675285
"1554",2.5620599227727e-05
"1555",1.1986411863063e-11
"1556",0.000978604500923463
"1557",2.47890596938305e-12
"1558",0.306771899011253
"1559",0.131973313242418
"1560",0.36789025734511
"1561",0.704701749297882
"1562",0.00494815037264684
"1563",0.937963120171395
"1564",0.24246460958236
"1565",0.0139487426966867
"1566",0.447379900268838
"1567",0.129256122736322
"1568",1.4588842575769e-05
"1569",0.605382792963938
"1570",0.532083837081058
"1571",0.707313622560926
"1572",0
"1573",1.9688656810346e-05
"1574",0.0849631036605419
"1575",0.00769373705099308
"1576",0.00222359292968688
"1577",0.0241077323112409
"1578",0.00395138996818745
"1579",0.0258262030551198
"1580",4.89219464938628e-09
"1581",0.160766849223081
"1582",0
"1583",0
"1584",0.000153790449933133
"1585",0.2131832399624
"1586",0.491779719213181
"1587",0
"1588",0.444502274901632
"1589",0.00542388279123396
"1590",0.325635989748054
"1591",0.277889938414182
"1592",0.430430732090022
"1593",0.899903854083671
"1594",0
"1595",0
"1596",3.33066907387547e-16
"1597",2.55069021306564e-05
"1598",0.00201971925167033
"1599",0.000150668360126782
"1600",0.00250466453945808
"1601",0.231701797692761
"1602",0.000259957671983391
"1603",0.0708049505852596
"1604",0.00274279906741914
"1605",0.000202522223732404
"1606",0.016405609347423
"1607",0.0504754501785674
"1608",3.80509892636827e-05
"1609",0.00149495825645607
"1610",0.00388896035142494
"1611",3.71740186858593e-05
"1612",0.00203866225957405
"1613",0.0350052120548316
"1614",0
"1615",0.0216936194179581
"1616",5.48079944795443e-05
"1617",4.20681927040256e-05
"1618",2.11115714298105e-05
"1619",0.0258913305297211
"1620",1.43514954364932e-08
"1621",0.0343839885417919
"1622",0.0226821550802176
"1623",0.000902074894414517
"1624",0.111235208265655
"1625",0.000738014997053171
"1626",0.000879841901205269
"1627",0.0106693745950923
"1628",0
"1629",0.0210994372607742
"1630",5.13785292088897e-09
"1631",0.0449246864746891
"1632",1.02256552170221e-06
"1633",0
"1634",0.000688955897300003
"1635",5.59706525571357e-09
"1636",0.00315749797690512
"1637",1.11022302462516e-16
"1638",0
"1639",0
"1640",7.79816178297921e-09
"1641",0.00146652060555197
"1642",0.00014659488366453
"1643",0
"1644",3.88495771027619e-05
"1645",6.58791077245979e-09
"1646",8.71454349453682e-05
"1647",1.95758775856092e-09
"1648",0.0326528360226338
"1649",0.0290991607624913
"1650",0.00750292890755888
"1651",0.104589145301323
"1652",0.0171803771533852
"1653",0.0883839153463446
"1654",5.93117413540956e-05
"1655",0.000189092198409457
"1656",0.32139243860722
"1657",0.488233083104921
"1658",0.00139713385668161
"1659",0.300028907174396
"1660",0.00310815967333045
"1661",0.000313263246071949
"1662",0.000852432364064293
"1663",0.0306870436912698
"1664",0.00900095685768765
"1665",0.244045423020831
"1666",3.79922737525629e-06
"1667",0.000175067825569863
