"","x"
"1",0
"2",0
"3",0
"4",0
"5",0
"6",0
"7",0
"8",0
"9",0
"10",0.576523409654578
"11",0.981669197197996
"12",5.06294450808298e-10
"13",0.00333646686901556
"14",0.000135694382009222
"15",0
"16",0.764252703796368
"17",0
"18",0.00337463216369838
"19",0.0264386960840324
"20",0.112655816791131
"21",0.23543784166231
"22",0.742522173406942
"23",0.160347140682863
"24",2.3213213590112e-05
"25",0.0151038168274136
"26",2.84968694641563e-05
"27",0.219602819530595
"28",0.650758367478822
"29",0
"30",0
"31",0
"32",0
"33",1.92994509262689e-11
"34",0
"35",0.0314890469205107
"36",5.39834288382224e-10
"37",0
"38",0
"39",0.226131232768545
"40",0.0372738158048513
"41",0
"42",5.32666049778419e-05
"43",0.00061150238584784
"44",0
"45",0
"46",0.0603530399483596
"47",0.00781081605428524
"48",0.0773944054672159
"49",0.0040719613287995
"50",0.271931682415228
"51",2.62823096619513e-12
"52",0.994393045183188
"53",0.0219314193956577
"54",0.00186705123922537
"55",0.51530312267255
"56",0.00288304943028939
"57",1.10460851576732e-08
"58",3.78246432679585e-05
"59",0.00338463571620495
"60",0.617935825475527
"61",0.014169071060749
"62",1.73370359302094e-06
"63",0.298814777981499
"64",0.0302699558180435
"65",0.0102970008114536
"66",0.0715565514364318
"67",2.15364161171294e-07
"68",0
"69",8.02012806166985e-08
"70",0.000550581959630425
"71",0.167793855690804
"72",0
"73",0
"74",0
"75",0.307663657911087
"76",0.367974469175477
"77",0.0148142533177092
"78",0
"79",0.815010335819581
"80",0.00864288822927783
"81",0.00484230190073187
"82",0
"83",0
"84",0
"85",0.478813696067586
"86",0
"87",0.00104477189022645
"88",1.61413105104202e-11
"89",3.22937676600077e-10
"90",0
"91",0
"92",0
"93",0.0909478755629087
"94",0.0762454781596091
"95",0.212382780992071
"96",8.44161567981061e-05
"97",0.00329693416082788
"98",7.16091029473453e-07
"99",0.873205009253218
"100",0.000375591363104055
"101",0.00417239756377408
"102",0.00272879255326142
"103",0.00610200770046077
"104",0.376826871901769
"105",0
"106",0.414298023579984
"107",0.476133761603155
"108",0.042771558065771
"109",0.000507396604619292
"110",1.53191336282887e-08
"111",0.00998134073408241
"112",0.000186699205398266
"113",0.00220657714939265
"114",0.0913934780921269
"115",0.106415043138026
"116",0.0368475789970251
"117",0.00431927901709939
"118",0.00590891360452361
"119",0.00441933832667707
"120",1.21738337077737e-05
"121",0.00209863418233935
"122",0.960101989618446
"123",5.10782919516117e-07
"124",0.00907559757196752
"125",0.00819058447992715
"126",0.00420724553473917
"127",9.98455095585493e-05
"128",0.00046581225609077
"129",0.0140354410621897
"130",0.000675904450152087
"131",0.0436005394181392
"132",0
"133",0.0559662361961244
"134",0.00243107741666337
"135",6.76200698828122e-05
"136",0
"137",0
"138",0
"139",0
"140",0.00098869913446864
"141",0.00346448491191942
"142",0
"143",6.2906346798286e-12
"144",0
"145",0.192414602043532
"146",0.00398550281276233
"147",0.00175293601052839
"148",1.42021469806686e-07
"149",0.000849917583532589
"150",0
"151",0.115525803367768
"152",0.0110706593418821
"153",0.155465738233143
"154",0.169873294115085
"155",6.61248091615718e-07
"156",0.0201688848445699
"157",2.84144182738366e-07
"158",2.20633467051812e-08
"159",0.000171099979290879
"160",1.47534485657186e-05
"161",0.000881565355610681
"162",0.0260238028386333
"163",0.365313834061571
"164",0.0471345488843623
"165",0.00417218884691128
"166",0
"167",0
"168",0.0104617336392818
"169",0.0379113128530393
"170",0.0410667159383415
"171",0
"172",0.00287290408300611
"173",3.1178825730116e-06
"174",0.000458756410161909
"175",0.0605022528569197
"176",0.133681617049924
"177",0.131337095079943
"178",0.00129569565003862
"179",0.00250247650304813
"180",0.0184272058849282
"181",0.0504950778501901
"182",0.0219174754912776
"183",0.100198201989205
"184",0.0169586386815598
"185",0.1214477822746
"186",0.106765187072097
"187",0.00215174758833436
"188",2.84711807085891e-05
"189",0.389855217021709
"190",0.000641814872058721
"191",0.832356670035411
"192",0.00110364904898752
"193",0.00362166190603797
"194",0.000723770616703479
"195",0.446693697429169
"196",0.233016840368372
"197",0
"198",0.0239225341900026
"199",0.0938863065104715
"200",5.17807917432833e-07
"201",1.27903709744581e-05
"202",0.137551854937774
"203",0.19063488181553
"204",0.0268635345470254
"205",0.0394179079823327
"206",0.0134211040387267
"207",0.764404799616001
"208",3.10862446895044e-15
"209",0.0217340591170678
"210",3.49312800906887e-11
"211",0.00658541568078297
"212",0
"213",0.00553372008190944
"214",0.00243405024610976
"215",0.000979206560023926
"216",2.40310608079497e-08
"217",0.0532065064393081
"218",0.345638779744778
"219",0.00415133661308686
"220",0.0245227121854961
"221",0.0203801117619956
"222",0.0109509944189004
"223",0.0540182594769544
"224",0.0159377857728975
"225",1.14342827468583e-05
"226",0.00017320031840129
"227",0.000117478004900695
"228",0.0339240962041893
"229",0.00188415618835713
"230",0.0176376374594689
"231",0.0723283886127895
"232",0.00509491246368654
"233",1.70186454406807e-05
"234",0.133898973012563
"235",0.860992203436129
"236",0.464880803354946
"237",0.55658932278966
"238",9.05711356802286e-07
"239",0.00286981487752991
"240",0.000820316260421672
"241",2.8330360654083e-06
"242",1.3838823180401e-05
"243",0.0285421551265079
"244",4.59883951675621e-06
"245",0.0153508775238713
"246",1.69000690108945e-08
"247",0.0530474937245888
"248",8.85957973650875e-13
"249",0.0443391610833825
"250",8.68932071851347e-08
"251",7.36658075101149e-05
"252",0.00159559499701978
"253",3.42925155444318e-05
"254",0.0365731683162333
"255",0
"256",1.51366668458275e-05
"257",1.98844521936969e-06
"258",0.000114893913731873
"259",3.21171188533143e-08
"260",0.160548680506873
"261",0.00118307015554564
"262",1.40342238330593e-05
"263",0.0032675645888266
"264",2.3761854404114e-06
"265",0.0001108617729082
"266",0.00260840657101624
"267",0.000110892142650254
"268",2.92683530744853e-08
"269",0.000241329754158359
"270",1.10421063947985e-06
"271",0.00291917110018591
"272",0.0104701750368842
"273",0.00536427018418917
"274",0
"275",0
"276",0
"277",0
"278",5.48088110352563e-06
"279",0.0327969423269667
"280",0.00110696972086077
"281",0.128335101481293
"282",0.0434166223506129
"283",3.75867133229901e-05
"284",0.631866794297544
"285",0.101485119416586
"286",0.532300933878343
"287",0.0429077504208395
"288",0
"289",0.755873324735714
"290",0.0044031029680569
"291",0.549723667632536
"292",2.97688570202181e-05
"293",0.00366842700362735
"294",8.78076311661147e-08
"295",0.411182701308985
"296",0.0662354550070074
"297",0.431124335611216
"298",0.00222472069891311
"299",0.368003499976447
"300",0.549071893074185
"301",0.0325141571206209
"302",0.0014018037797624
"303",9.46189371298090e-09
"304",0.405957530247502
"305",0.877167876630206
"306",0.300626771967534
"307",0.282124443390546
"308",0.448224460763514
"309",0.0846824887272053
"310",0.523142585832677
"311",0.609407930936804
"312",1.53233182820234e-06
"313",0.00157023014514457
"314",0.00513490150259432
"315",0.00178706927155259
"316",0.160219744947791
"317",0.713634399537031
"318",0.00769184216330099
"319",0.0261701443501835
"320",0.534063555911972
"321",0.542023722788366
"322",2.10700910052708e-07
"323",9.78391338586349e-05
"324",0.135525138156668
"325",0.914313091848053
"326",0.124859807219496
"327",0.256355548111467
"328",0
"329",0.0175001528657897
"330",0.252416530563432
"331",0.0816687357008482
"332",0.0868152392216059
"333",0.0307833335038241
"334",2.71005440311001e-13
"335",0.432741150823773
"336",0.0257480251707861
"337",0.467687949686674
"338",0.35749553450207
"339",0.0216535246326991
"340",0.0173619080355932
"341",0.0828959936033968
"342",0.0431001205220115
"343",0
"344",0
"345",1.68663050192919e-09
"346",0.000238560650425157
"347",5.52923856145249e-07
"348",0.0179868603699778
"349",0.000531609319169624
"350",4.17057610668792e-10
"351",7.65858570561662e-07
"352",3.69362981755827e-07
"353",2.02615701994091e-12
"354",0.00164140830018888
"355",7.48502849812205e-07
"356",6.05795071551007e-07
"357",1.11790432710812e-05
"358",2.33742701749584e-07
"359",0.000917243866610407
"360",3.17446069431071e-12
"361",1.68742797512778e-12
"362",1.73971947958762e-13
"363",1.64012243342171e-07
"364",1.11022302462516e-16
"365",4.03140262283941e-08
"366",0
"367",5.55111512312578e-16
"368",1.46465237715887e-08
"369",1.11022302462516e-16
"370",5.64367996780391e-10
"371",0
"372",7.47805286027692e-07
"373",0
"374",2.52020626589911e-14
"375",1.19868950321234e-07
"376",5.78474473877932e-08
"377",6.66133814775094e-16
"378",1.49430023910213e-10
"379",0
"380",0
"381",1.11022302462516e-15
"382",9.75241563061502e-08
"383",0
"384",9.85878045867139e-14
"385",1.3576917368141e-11
"386",0
"387",7.49289519319518e-13
"388",2.441289503885e-08
"389",7.49589279536167e-12
"390",1.11505585875804e-08
"391",5.69492231150548e-11
"392",3.94333721231988e-09
"393",1.39263411913504e-09
"394",5.65669733276764e-12
"395",8.23896506574329e-13
"396",2.50897724818344e-09
"397",2.75942620087122e-07
"398",6.41597885930878e-13
"399",2.1867130328701e-10
"400",1.00763619670374e-10
"401",0
"402",9.93916060565425e-12
"403",5.88418203051333e-13
"404",0
"405",0
"406",4.44089209850063e-16
"407",2.74225087082414e-14
"408",0
"409",0
"410",0
"411",0
"412",3.50605100507551e-11
"413",4.78076395138416e-08
"414",5.44009282066327e-15
"415",0
"416",0
"417",0
"418",1.11022302462516e-16
"419",5.93152593708623e-09
"420",1.41442413337245e-13
"421",0
"422",0
"423",0
"424",0
"425",2.68673971959288e-14
"426",1.16351372980716e-13
"427",3.30846461338297e-14
"428",0
"429",6.43718411907912e-12
"430",5.51888190702954e-09
"431",0
"432",0
"433",1.21861409851931e-11
"434",0
"435",1.11022302462516e-16
"436",0
"437",1.01929440443627e-08
"438",0
"439",0
"440",0
"441",0
"442",0.00765502002370555
"443",0
"444",3.94078062737613e-06
"445",0.418749240657675
"446",0.195424824737618
"447",0.372235900920755
"448",1.1874685604818e-06
"449",0.239553924664898
"450",0
"451",0
"452",0.000504592309149565
"453",0.222309285366466
"454",0.00162281242860896
"455",0.00171384871396929
"456",0.00365911840955857
"457",5.05656537652666e-06
"458",0
"459",0.00840262033593131
"460",9.83786871145975e-05
"461",0.111347989922614
"462",0.0145471026000238
"463",0
"464",0.00684082880513825
"465",0.0021280557665504
"466",7.73071158199912e-08
"467",0.0990687195173582
"468",0
"469",0.349990541471191
"470",0.712756348854438
"471",0.0736203470409199
"472",0.00216119133072301
"473",0.00169147262465796
"474",0.409885742293215
"475",0.620539609385277
"476",0.623127470021024
"477",0.386596903854037
"478",0
"479",0
"480",0
"481",0.0618687736276476
"482",0.00331140425808807
"483",0.0250243273154825
"484",0
"485",0.0785340411358949
"486",0.0571127866980092
"487",7.97194088519859e-10
"488",0.070237008283741
"489",0.000174111469060878
"490",0.0686692799249515
"491",0.000804471382917726
"492",0.419080584447747
"493",0.0490437496358811
"494",0.134603903579753
"495",0.2481288586041
"496",0.385242305425522
"497",9.87686468278959e-07
"498",0.000381128521106278
"499",3.28027930153185e-05
"500",0.138159126215162
"501",0.0275801634610942
"502",0.735831261236318
"503",0.0480678819751014
"504",0
"505",0.567300897558128
"506",0.0021298251495504
"507",0.000567647996183251
"508",0.131309032650704
"509",0.0227645499261938
"510",0.0421502097162865
"511",0.830112498211533
"512",0.0153987978829141
"513",0
"514",0.0386613780877677
"515",0
"516",0.195909756208619
"517",0.345686359905694
"518",0
"519",2.71211103552993e-06
"520",0.014009750554428
"521",0
"522",0.000677084115056625
"523",0.0209907725468839
"524",0.0200143003923913
"525",0.745505499198888
"526",4.55502580687384e-06
"527",0.0835260826535039
"528",0.00259062933425913
"529",0.000237123118479454
"530",0.00328967534820923
"531",0
"532",0
"533",0
"534",0
"535",0.288212241158826
"536",3.67815326588472e-05
"537",0.0367861202314604
"538",0
"539",0
"540",0.38166473778603
"541",1.11022302462516e-15
"542",0
"543",0
"544",0
"545",0
"546",0
"547",0
"548",1.22335475083446e-12
"549",0.00110008653189064
"550",0.00108671106688873
"551",0.00218854433722526
"552",0
"553",6.29222570491805e-07
"554",1.13614784247318e-10
"555",0
"556",4.62148568858289e-07
"557",0
"558",0.587665071126758
"559",0.613856011565816
"560",0
"561",0.00642083576772445
"562",3.29949720491163e-05
"563",0
"564",0
"565",6.46084029609639e-08
"566",0.68130605819739
"567",0
"568",0.00181936857670184
"569",0.0110352710800784
"570",0.00924905943026333
"571",1.95210514419841e-12
"572",0
"573",0
"574",0
"575",0
"576",0
"577",0
"578",0
"579",0
"580",0.407183549684081
"581",0.00157805224864471
"582",0.195837178455608
"583",0
"584",0
"585",1.44290819936721e-06
"586",0.00492964172517274
"587",0
"588",0
"589",0
"590",0
"591",0
"592",0
"593",0.0126882646675427
"594",0.00674564483593676
"595",0
"596",0
"597",0
"598",0.000277759226376739
"599",0
"600",0
"601",0
"602",0
"603",0
"604",3.40817374322455e-11
"605",1.01014374642716e-09
"606",0.106745443488736
"607",0.124488714198581
"608",0.00481910873259928
"609",0.000170465520982543
"610",0
"611",0.0606860082218977
"612",1.22808833965538e-05
"613",0
"614",0
"615",0.795174401373581
"616",0.000950246161720569
"617",0.00511190412271212
"618",0
"619",0.429451945672446
"620",0
"621",0.00526612634167356
"622",0.00153865176606871
"623",6.42778947745892e-06
"624",3.94553726518199e-05
"625",0.258861646596214
"626",0
"627",0
"628",0.000618593740434381
"629",0.108951183104208
"630",0.217142866759556
"631",0.0235408582776117
"632",0
"633",0
"634",0.00015551881326481
"635",0
"636",4.04179858781717e-06
"637",0
"638",0.000303113925995802
"639",0
"640",1.2713884097737e-06
"641",0.339223397954852
"642",0.0383289562695852
"643",0
"644",0
"645",0.371721886856657
"646",0.189801469555102
"647",0.609051060794731
"648",0.0111691666764572
"649",0.00557422515276129
"650",2.19839213499995e-09
"651",0.234594971966394
"652",0.00517129601439403
"653",0
"654",0.0575585576583474
"655",0.146813732857414
"656",0
"657",0
"658",1.13444091365267e-06
"659",0.0602583970919737
"660",0.900923740290569
"661",0.0177662451476592
"662",0.58713791549086
"663",0.00798928157406786
"664",1.49289200622738e-05
"665",0.3385905612122
"666",1.40394812901956e-05
"667",0
"668",0.0169015879896572
"669",4.6010477150471e-07
"670",0.0139314389671298
"671",0.096985570713542
"672",0.443427300548045
"673",1.53906831764639e-05
"674",0.0315431071395887
"675",0.0136383442859263
"676",0.0656227477085376
"677",0.00277860673943708
"678",0.0686014023131067
"679",0.0300178333479395
"680",0.0540445104198906
"681",0.122382067933868
"682",0.112085340168818
"683",0.400286881403523
"684",0.00152730016689662
"685",0.294667156566555
"686",0
"687",7.24378220247068e-05
"688",0.0755681318262398
"689",0
"690",0
"691",0
"692",0
"693",0
"694",0
"695",0
"696",0
"697",0.530605553720193
"698",0.082684995644414
"699",0.419493581718911
"700",0.00968133334205334
"701",0
"702",0.000153280749777718
"703",0.000929917676248726
"704",0.000328429944350339
"705",8.35913194234816e-05
"706",1.88737914186277e-15
"707",1.09340524390156e-06
"708",5.12513952311e-05
"709",0.00256980194564405
"710",1.17891392227287e-05
"711",1.00697228333502e-13
"712",0.000446920639156856
"713",4.74797645644287e-10
"714",1.74031262067942e-07
"715",1.75415237890775e-14
"716",6.86638237867854e-06
"717",0
"718",7.5254247278167e-12
"719",0
"720",0
"721",0
"722",4.64633442831541e-10
"723",6.12748740635993e-11
"724",0
"725",0
"726",0
"727",8.51874126794883e-13
"728",2.22044604925031e-16
"729",0
"730",4.44089209850063e-16
"731",0
"732",0
"733",0
"734",0
"735",0
"736",0
"737",0
"738",0
"739",1.00841557326703e-12
"740",0
"741",0
"742",1.11022302462516e-16
"743",0
"744",2.28261853862932e-13
"745",0
"746",6.0107474553206e-13
"747",0
"748",5.21804821573824e-15
"749",0
"750",2.22044604925031e-16
"751",2.22044604925031e-16
"752",1.58506541225734e-12
"753",0
"754",4.32986979603811e-15
"755",2.1094237467878e-15
"756",0
"757",8.94839757847876e-14
"758",0
"759",0
"760",6.77339062393756e-07
"761",0
"762",2.22044604925031e-16
"763",1.81656335529468e-08
"764",0
"765",0
"766",0
"767",8.29518675971030e-11
"768",0
"769",8.49320613838245e-14
"770",0.00202285138935621
"771",0
"772",7.105427357601e-13
"773",1.14473985846075e-11
"774",2.66453525910038e-15
"775",1.22124532708767e-15
"776",4.79028339217535e-09
"777",0
"778",1.22108792877107e-06
"779",2.09832151654155e-14
"780",0
"781",0
"782",1.98396854500515e-12
"783",4.55191440096314e-14
"784",3.04201108747293e-14
"785",1.24620869179637e-10
"786",1.31783473023006e-12
"787",1.91042626163096e-10
"788",8.12562239715930e-11
"789",0
"790",1.21577490996838e-06
"791",0
"792",0
"793",0.00102942903264369
"794",4.32986979603811e-15
"795",1.66533453693773e-15
"796",8.6437510149473e-08
"797",0
"798",8.6811676736076e-09
"799",2.62192489941526e-10
"800",6.87821688494239e-10
"801",4.30626534431156e-10
"802",0
"803",0.845295166679599
"804",0.00298275838598638
"805",0.10575444469426
"806",1.01774531333643e-05
"807",0.00629325890163857
"808",0.0477692432230296
"809",0.328867599330644
"810",0.175231893418601
"811",4.31175095627623e-10
"812",0.130785888279553
"813",0.00252437589991938
"814",0.000305959411046053
"815",0.0576173952616318
"816",0
"817",0.00330976140961181
"818",0.152000130754713
"819",0.378129705809251
"820",3.67524644051542e-09
"821",0.0530246891364475
"822",0.0170671066487531
"823",0.00968746170518087
"824",0.209851883966151
"825",0.000108154084677126
"826",0.026371824754622
"827",0.272266455615302
"828",0.0845658175275508
"829",0.0659861860365465
"830",0.00055755173721117
"831",0.000421093191022126
"832",0
"833",0.450298858418448
"834",0
"835",1.12856931423488e-05
"836",0.749583794073739
"837",0
"838",0
"839",0.245323543369154
"840",1.23320777400959e-06
"841",0
"842",0
"843",0
"844",0
"845",0.418687475241376
"846",0
"847",0.0890104507688148
"848",0.705408786916641
"849",0.167614260706415
"850",0
"851",3.97530067530738e-07
"852",0
"853",0.0316426839152846
"854",0
"855",0
"856",0
"857",2.75113265502114e-13
"858",0.00123427557934452
"859",0.178572006081869
"860",0
"861",0
"862",0.0785154434860063
"863",0
"864",0
"865",0.00194397984918482
"866",3.20581339252612e-11
"867",0.000810088892256089
"868",0.0041269499252693
"869",0.0687018612836711
"870",0.143958055847468
"871",2.69631896698819e-07
"872",0.00018293558039173
"873",1.24293908498885e-11
"874",0.0157387568092829
"875",0.226449984581519
"876",0
"877",0
"878",0
"879",0
"880",0
"881",0.204022946680852
"882",0.939576807118124
"883",0.379150381955145
"884",0.0729450356906254
"885",0.0474723445782719
"886",0.166470247088646
"887",2.51353762330542e-05
"888",0.763883984406846
"889",0.0498413720840841
"890",0.546951885393711
"891",0.283285016899072
"892",0.0404405721568893
"893",0.0221079661997415
"894",0.0197151029132738
"895",0.016548175486427
"896",0.683016550536103
"897",0.858929026269371
"898",1.79365314822988e-07
"899",0.0038525572191106
"900",0.393264189028548
"901",0.00121695729531723
"902",0.000943353248830214
"903",0
"904",0.000555736089517755
"905",0.0015582874226403
"906",0.000158966006347239
"907",0.0240150206795721
"908",2.22044604925031e-16
"909",1.22568621918617e-13
"910",0.137445588903467
"911",6.00574178166724e-08
"912",0.000265616334003904
"913",0.0217800387403767
"914",0.0619513554476283
"915",0.0113146369314577
"916",0.289129859127211
"917",0.00501948753400183
"918",0.000920139756110272
"919",0.168783492106642
"920",0.442213093830858
"921",7.47330941253121e-06
"922",0.168128578439806
"923",0.0268323925397497
"924",0.00824711048242188
"925",0.00760329832254902
"926",0.0101875833568301
"927",0.573173733571978
"928",0.163292237651916
"929",0.000345931726483339
"930",1.09242135559739e-07
"931",0.0286463048909659
"932",3.35953487251572e-13
"933",0.011287149608501
"934",0.000990604407046569
"935",0.0116584251157636
"936",6.32512582865452e-07
"937",0.0603663678133652
"938",0.117162891869846
"939",0.00546221267426228
"940",3.01599061125479e-06
"941",7.37596650424166e-11
"942",0.000251132118383235
"943",0.00533781043147896
"944",6.59865511676294e-07
"945",6.23645585982047e-05
"946",0.0144285625527283
"947",0.0026211963882975
"948",0.0311502195350629
"949",0
"950",0.0162715027015188
"951",0
"952",0.0724648139904072
"953",0.963741084062436
"954",0
"955",6.94933000033870e-12
"956",0.149993462629112
"957",0.000914239446038634
"958",2.22044604925031e-14
"959",0.201767478365321
"960",0.00103580902821265
"961",0.0292642195565789
"962",0
"963",0
"964",0.0134468731591684
"965",0
"966",0
"967",2.18203233259828e-12
"968",0.0682424394711107
"969",0.264671067960625
"970",0.20543626758357
"971",1.2895002510227e-08
"972",0.000680165597846338
"973",0.0450673720353159
"974",0.0761195814648075
"975",0.00948301947714436
"976",0.0221195454909934
"977",0.000114471035322472
"978",0.00438979213314916
"979",0.00579853581208678
"980",0.36848673541247
"981",0.0586278492468157
"982",0.987269205446933
"983",0.7670257223178
"984",0.196383693767321
"985",0.00275252991496455
"986",0.211388673111134
"987",0.0228107518249669
"988",0
"989",0
"990",0.260499287727891
"991",0.377909559651211
"992",0.14309833481916
"993",0.114098847401863
"994",0.00105605233989581
"995",0.703462181455883
"996",0.854272670426706
"997",0.917112975050643
"998",1.26591070959137e-10
"999",0.00058645067663976
"1000",0
"1001",1.2772106705583e-09
"1002",0.0220598502232522
"1003",3.84327113467364e-08
"1004",0.000626946060201861
"1005",0.0620917777271919
"1006",0.703380741717266
"1007",1.77355268335955e-05
"1008",0
"1009",0.027856303464434
"1010",4.29156155057342e-10
"1011",0.329349579794555
"1012",0.0814234354415655
"1013",0.181532802113882
"1014",0.458518862923944
"1015",0.00580405759587121
"1016",0.00431259906642634
"1017",1.13495683962128e-08
"1018",0.000424839389554399
"1019",0.00314520454671496
"1020",0.0360664707276399
"1021",0
"1022",0.0720474866983163
"1023",0.0041978603259053
"1024",0.00562173063186644
"1025",0.000146459074114591
"1026",0
"1027",0
"1028",0.104093048056928
"1029",0.0500325412463507
"1030",0.0457922872737494
"1031",0.000109444951019499
"1032",0.0370783208431456
"1033",0.376470181039677
"1034",0.0843223283570437
"1035",0.00317131674240345
"1036",0
"1037",0
"1038",0.503696110809768
"1039",0
"1040",0.00681756450482895
"1041",0.0586751698343738
"1042",0.376027766661874
"1043",0
"1044",0
"1045",0
"1046",3.32556204796219e-12
"1047",0
"1048",0
"1049",4.88624696259876e-11
"1050",0
"1051",0
"1052",0
"1053",0
"1054",0.00128390016402036
"1055",0
"1056",0.315191674450775
"1057",0.305428749802617
"1058",8.53743365689663e-05
"1059",0.915523586589966
"1060",0
"1061",1.36604616507441e-09
"1062",0
"1063",0
"1064",9.42635303147199e-10
"1065",4.05212530196764e-11
"1066",0.0442246306866926
"1067",0
"1068",0.267810669865158
"1069",6.24956904164975e-05
"1070",0
"1071",0
"1072",0
"1073",0
"1074",0
"1075",0.00093379774999558
"1076",0.034998733262504
"1077",3.25674154311173e-10
"1078",1.24194026174251e-07
"1079",5.00608593578811e-07
"1080",0.434430061812617
"1081",0
"1082",1.05844111253361e-10
"1083",0.2670446167703
"1084",0.00374475005344477
"1085",0
"1086",0
"1087",0
"1088",0.00648008364736874
"1089",0.351084350290854
"1090",0
"1091",0
"1092",0.00494546446212918
"1093",6.51629452860236e-05
"1094",0.095600640803136
"1095",0.175048811411436
"1096",1.54187773659942e-12
"1097",0.0083059100877807
"1098",0.0052341547011967
"1099",2.40211138070601e-05
"1100",1.95343741182796e-12
"1101",0
"1102",0
"1103",0
"1104",0
"1105",0.303645349244938
"1106",0.138210781323918
"1107",4.44089209850063e-16
"1108",0
"1109",0
"1110",1.46512445509117e-08
"1111",0
"1112",0.131047027746932
"1113",0.645760115160947
"1114",0.00849000506329389
"1115",3.33066907387547e-16
"1116",0.0917808933628463
"1117",0
"1118",2.06395907109691e-06
"1119",0
"1120",0
"1121",0
"1122",0.349795319797349
"1123",0.0731853779740954
"1124",0.0785989557435152
"1125",0
"1126",0.458185421764729
"1127",0.000107017963743794
"1128",0.120832427776442
"1129",8.48003131520558e-05
"1130",0
"1131",0.0270395052214063
"1132",1.67746350143716e-09
"1133",0
"1134",0
"1135",0.195246491189903
"1136",0.000898262004168648
"1137",0
"1138",0
"1139",0
"1140",0
"1141",0
"1142",7.25048909799852e-11
"1143",0
"1144",1.11022302462516e-16
"1145",0.0232180304725568
"1146",0.00423296173746857
"1147",1.25400388961694e-08
"1148",3.27752873729992e-08
"1149",6.77663216475111e-06
"1150",2.77378359614389e-07
"1151",0
"1152",3.63541015380164e-06
"1153",3.51410885848225e-05
"1154",3.20248760821151e-06
"1155",0.665010197952568
"1156",0.00788211301317376
"1157",0.0276010084351812
"1158",0.000632842087172403
"1159",0
"1160",0
"1161",0
"1162",0.820740936087921
"1163",7.18404224997471e-11
"1164",5.29115637137867e-06
"1165",6.47774377549037e-06
"1166",0.168664671455495
"1167",4.8762804905067e-09
"1168",0.248537687098478
"1169",0
"1170",0
"1171",1.0745404566137e-11
"1172",4.23724466624975e-09
"1173",6.47140770677623e-05
"1174",0.0101020864003271
"1175",1.4448316359994e-06
"1176",0
"1177",0.025875268169167
"1178",0.000198892138351892
"1179",3.164308528536e-06
"1180",0.000128850031962391
"1181",1.59192658233387e-06
"1182",0
"1183",0.0483842140757527
"1184",4.67439544404868e-07
"1185",2.29070225687966e-06
"1186",4.06669578811858e-06
"1187",3.03886915631324e-11
"1188",1.75600579830348e-05
"1189",0.00201658660983184
"1190",0.11859264405837
"1191",0.159147035160303
"1192",3.02027634691004e-06
"1193",0.0286443658468579
"1194",1.02632617293708e-07
"1195",0
"1196",0
"1197",0.00388201881058037
"1198",0
"1199",0.257222778968895
"1200",0.00034668010377914
"1201",0.0500197425024708
"1202",4.56575782159518e-06
"1203",9.0328439620424e-05
"1204",0.000162245591300625
"1205",0.0398151867601239
"1206",0.0319181262753051
"1207",1.91012269556978e-07
"1208",0.238428391534349
"1209",0.0161217136841715
"1210",5.9671834163888e-06
"1211",0.000358135892976952
"1212",0.00040160756673957
"1213",0
"1214",0.00211725872872937
"1215",1.79685702099697e-05
"1216",9.41119893127507e-09
"1217",8.67284111749633e-07
"1218",0.000335214944388706
"1219",9.68080157826012e-06
"1220",3.64916852269026e-06
"1221",0.0312112443916523
"1222",9.08484398820519e-12
"1223",0
"1224",0
"1225",6.79234446465671e-13
"1226",7.09068266546709e-07
"1227",3.59932930665829e-05
"1228",1.41140832354836e-09
"1229",1.20610521570086e-10
"1230",0
"1231",0
"1232",9.5990266355872e-05
"1233",1.51308965357089e-11
"1234",8.89724826725891e-05
"1235",0
"1236",0
"1237",0.00010805353940313
"1238",1.2802336413209e-08
"1239",1.48204672523189e-06
"1240",2.52102724918046e-07
"1241",1.2544140282067e-08
"1242",1.12818165920459e-09
"1243",5.49770019508955e-08
"1244",2.1571543018517e-07
"1245",8.02459210191842e-11
"1246",6.51294310107797e-05
"1247",2.05073513726006e-10
"1248",9.68196744999261e-10
"1249",1.39380713566339e-05
"1250",6.51271190310609e-08
"1251",0
"1252",2.9064484152741e-10
"1253",7.82876435456714e-07
"1254",2.48958341830807e-05
"1255",7.03762526033103e-09
"1256",6.11626857938141e-07
"1257",2.10036323872176e-05
"1258",3.97692989650977e-12
"1259",5.99159721836884e-10
"1260",1.13320126171601e-07
"1261",0
"1262",0.216973310640772
"1263",1.60833204871924e-05
"1264",1.73202759146118e-06
"1265",4.71955807768154e-13
"1266",2.22440968710158e-05
"1267",2.42261014460343e-06
"1268",0.00253302160932378
"1269",0.00241797631861618
"1270",0.0186420029803991
"1271",1.49553258665946e-10
"1272",1.13996778683401e-09
"1273",2.08369654863816e-10
"1274",5.02931030155196e-14
"1275",8.64101684650009e-08
"1276",0
"1277",6.12541584121828e-09
"1278",5.09609659112842e-05
"1279",9.32587340685131e-14
"1280",3.9290834605854e-05
"1281",2.18886908598392e-10
"1282",3.3438280144793e-08
"1283",2.39663844325833e-12
"1284",0.280790983738203
"1285",2.00195415800408e-11
"1286",1.96924215822847e-06
"1287",0.198937443255893
"1288",1.40998324127395e-14
"1289",2.47811537147369e-05
"1290",0
"1291",1.4997225683544e-11
"1292",0.000174882741985294
"1293",3.53185358736852e-09
"1294",1.04324326954952e-11
"1295",3.47144535339794e-12
"1296",0.000978513570879525
"1297",0
"1298",1.54330936918967e-09
"1299",8.81517081552374e-14
"1300",4.82935913481697e-12
"1301",0
"1302",0
"1303",2.17884797315548e-07
"1304",7.60419933354406e-06
"1305",6.86102086255858e-08
"1306",4.57906000672637e-07
"1307",1.45643133109274e-08
"1308",8.87249674064172e-07
"1309",0
"1310",0
"1311",0.00185359875604674
"1312",1.1048330028629e-09
"1313",0
"1314",1.03086539304797e-10
"1315",5.12704323440971e-11
"1316",0
"1317",1.13297149439973e-10
"1318",2.00341843115126e-09
"1319",0.0859167379028318
"1320",0.029472842102636
"1321",1.32588384715859e-11
"1322",0.000660171209443616
"1323",5.23425681990819e-05
"1324",0
"1325",0.648528670059597
"1326",1.56733045331148e-06
"1327",1.98886506845852e-05
"1328",0
"1329",0.000481519249723172
"1330",0.0216492037730308
"1331",0
"1332",0.0267117436292776
"1333",0.0136395226578503
"1334",0
"1335",0
"1336",0
"1337",0.000104379454537784
"1338",0.690230949997277
"1339",0.00115257175462347
"1340",0.244985904611978
"1341",8.56147902572602e-08
"1342",0
"1343",0
"1344",0.0198788662280314
"1345",0.801421583004812
"1346",0.00227556731943257
"1347",0
"1348",0
"1349",0.000610360239867491
"1350",0.349664353652553
"1351",0.000900489031440022
"1352",0.00311186831163457
"1353",0.639698351176627
"1354",0.122083264045463
"1355",0
"1356",0.295036974042311
"1357",0.00606956161375649
"1358",1.6130392855529e-05
"1359",0
"1360",0.633416419919804
"1361",7.90827567653807e-07
"1362",8.32906087144814e-06
"1363",0.536283329145796
"1364",4.35900143425094e-06
"1365",0.000161141094159434
"1366",0.34188945559915
"1367",0.273776451379121
"1368",0.177507111243827
"1369",0.230368722034846
"1370",0.240980143790783
"1371",0.00378344663358809
"1372",0.000556500208812927
"1373",2.77485612265593e-09
"1374",1.18360876655288e-12
"1375",0.0202890394576802
"1376",0.851148187296461
"1377",0.0126158196662419
"1378",0.0427511393031795
"1379",0.0931622053078264
"1380",0.980381945949343
"1381",0.0131361323675411
"1382",0.173152110680116
"1383",0.126401822498117
"1384",0.357821302692624
"1385",0.0919735921096205
"1386",0
"1387",0.772917328328515
"1388",0.00197349693029469
"1389",0.335411929979797
"1390",0.0839217692877161
"1391",0.0159674736195607
"1392",0.0254232764987128
"1393",0.131923158662683
"1394",0.0241277705906051
"1395",0.0890112844070728
"1396",0.0835658846025022
"1397",0
"1398",0.0909829553282342
"1399",4.10933729078078e-06
"1400",0.000199088100773404
"1401",0.305427943683325
"1402",0.0407647262312589
"1403",1.39459424297605e-05
"1404",0.448788974498136
"1405",0.00092464602532627
"1406",0
"1407",0
"1408",4.9960036108132e-15
"1409",1.37719755288757e-06
"1410",0
"1411",0.388563220329621
"1412",0.295919756652087
"1413",0.00985977337321298
"1414",0.0111138205746181
"1415",0.129241428357518
"1416",0
"1417",0
"1418",2.66073096222286e-06
"1419",0
"1420",0
"1421",0
"1422",0.000319550335316832
"1423",0.00212483291025989
"1424",0
"1425",0
"1426",0
"1427",0.0242441641969362
"1428",0.00770437314087602
"1429",0
"1430",0
"1431",1.08413278354647e-12
"1432",0
"1433",0
"1434",0
"1435",0
"1436",0.083274846206019
"1437",0
"1438",0.830374177963581
"1439",2.1036391587681e-05
"1440",7.7277432231071e-09
"1441",7.13745977098945e-07
"1442",0.455681729566247
"1443",0.129776464113709
"1444",0.0955620105118141
"1445",0.768696261765033
"1446",0.0094667374615528
"1447",0.0916936713419902
"1448",1.36400890582422e-11
"1449",0
"1450",1.16292531160411e-11
"1451",0.00118909456489302
"1452",0
"1453",0
"1454",1.55127156009627e-07
"1455",0.0442261119303522
"1456",4.46031596768037e-07
"1457",0.00314515559359085
"1458",0.000166924309278782
"1459",0.0612893646261105
"1460",0.543251377974454
"1461",0.000125481587342491
"1462",0.000146431514734591
"1463",0.00237500762276277
"1464",0
"1465",0.318814595364604
"1466",0.0159409640917675
"1467",0.435664374889263
"1468",3.92685883809918e-13
"1469",0.0726875646872495
"1470",1.3599741222059e-08
"1471",0
"1472",0
"1473",0.00954031837354252
"1474",0.0115117955582529
"1475",0.0464371240923673
"1476",0
"1477",0
"1478",0.192148015477808
"1479",0.0598118474946888
"1480",5.32867984182062e-08
"1481",6.23523885745492e-07
"1482",0.0108603925122253
"1483",0.000225034773930655
"1484",0.0392247128182622
"1485",0
"1486",0.00231533908081061
"1487",0
"1488",0.00763562072206003
"1489",0.317392668978881
"1490",0.0174587315838285
"1491",0
"1492",0.0181154471095378
"1493",0
"1494",0.0974005603570052
"1495",0.347848860750618
"1496",0.813946109558665
"1497",0.11213138851277
"1498",0.00427792115963221
"1499",0.0627142709111181
"1500",0.023422230012326
"1501",0.097260918023877
"1502",0.000286301811825762
"1503",0.0971065786365993
"1504",0.000906131647773534
"1505",0.0483197811656553
"1506",0
"1507",0
"1508",0.0994317478309509
"1509",0.000238543237172317
"1510",8.21038126375129e-10
"1511",0.00149203627595951
"1512",0
"1513",0.0801330779817836
"1514",1.1766652034173e-05
"1515",0.0847338913453751
"1516",0.055426577397105
"1517",4.48818759934966e-12
"1518",9.01036179001835e-09
"1519",0.066480165099584
"1520",0
"1521",0
"1522",0
"1523",0
"1524",0.0171784485219266
"1525",0.307792802089789
"1526",0.012907708931358
"1527",2.92029378345937e-07
"1528",0.157258485459206
"1529",1.73817737980642e-10
"1530",2.19967099991392e-05
"1531",0.182878740954635
"1532",0.312635690311959
"1533",0.0142931270926766
"1534",0.428717023118439
"1535",0
"1536",0
"1537",0.999998941866041
"1538",0
"1539",0.00329991568479737
"1540",8.34221580703343e-12
"1541",2.20493132729871e-06
"1542",0.0337246977264672
"1543",0.000500811887511499
"1544",2.1729122945402e-09
"1545",1.33972224913848e-06
"1546",1.24640960742495e-05
"1547",0.00349686033573415
"1548",0.0373440688161524
"1549",0
"1550",0.00902879540151225
"1551",8.26756074712165e-09
"1552",0
"1553",0.000162351766343938
"1554",9.14985606681462e-06
"1555",0
"1556",0
"1557",0
"1558",0.167699068945861
"1559",0.0450815697528991
"1560",0.311361337107486
"1561",0.551082064216774
"1562",0.00266998333233148
"1563",0.921266293240783
"1564",0.0261901916870133
"1565",0.0123339388821344
"1566",0.391336262515925
"1567",0.0333152425562602
"1568",3.22931243246227e-06
"1569",0.508586958352634
"1570",0.500713697641756
"1571",0.213296925120061
"1572",0
"1573",9.03438435173598e-11
"1574",3.84798618313642e-06
"1575",0.00148531962227438
"1576",4.5383730052917e-06
"1577",0.00575345979234509
"1578",0.00593017806195462
"1579",0.00386740470915836
"1580",0
"1581",1.30909270397161e-05
"1582",0
"1583",0
"1584",0
"1585",2.07304173827083e-11
"1586",0.0442971470884732
"1587",0
"1588",0.282379630994376
"1589",0.00154314540376443
"1590",0.148105681574635
"1591",0.23146736761947
"1592",0.00663691222094742
"1593",0.891573758870664
"1594",0
"1595",0
"1596",0
"1597",6.97066766031096e-06
"1598",0.000677252202989531
"1599",2.75023664542129e-05
"1600",0.00244199015918456
"1601",0.238155838228686
"1602",7.60118806497623e-05
"1603",0.071180655428955
"1604",0.000935883945492821
"1605",0.000220595639888743
"1606",0.00779162007017631
"1607",0.0370208539084068
"1608",3.92248259665218e-05
"1609",0.00136587136286082
"1610",0.00507138746102098
"1611",2.48948578454034e-05
"1612",0.000632696638810604
"1613",0.0144348162583342
"1614",0
"1615",0.00094539505582647
"1616",7.4941719496735e-08
"1617",8.23085328308659e-05
"1618",1.74953583043091e-05
"1619",0.036892186375716
"1620",2.54834586765895e-09
"1621",0.0461006821342562
"1622",0.0207869156679831
"1623",0.00200309264256926
"1624",0.000675998138966016
"1625",0.00108549617226583
"1626",0.000197575955666829
"1627",0.00463649830103885
"1628",0
"1629",0.000151098425345775
"1630",5.82549342098559e-10
"1631",0.0234974012836662
"1632",2.14750439653244e-12
"1633",0
"1634",0.00066389114722909
"1635",5.89479576262875e-11
"1636",0.00207330302487718
"1637",1.11022302462516e-16
"1638",0
"1639",0
"1640",1.04035058345886e-08
"1641",0.00108754603746763
"1642",7.11113072389136e-05
"1643",0
"1644",3.16469881539438e-05
"1645",0
"1646",0.000209007995981225
"1647",1.2343570610085e-11
"1648",0.0395651408116696
"1649",0.0250544204344639
"1650",0.0075102265226078
"1651",0.103656231387688
"1652",0.00906767777578643
"1653",0.041321546157511
"1654",1.56953400702875e-05
"1655",0.000145364423446481
"1656",0.272702683058061
"1657",0.385197594212799
"1658",0.00138509403641396
"1659",0.278467907648708
"1660",0.0045079479621758
"1661",0.000193696513876795
"1662",0.000869507039421458
"1663",0.00853988935483796
"1664",0.00737093632150798
"1665",0.159714351710046
"1666",5.72875080706581e-14
"1667",5.13118767504483e-05
