"","x"
"1",0.00316248519314799
"2",0
"3",0.929863214302715
"4",0.829206747440929
"5",0.993936978878915
"6",0.908509516990421
"7",0.0837434856529324
"8",0.726575232970312
"9",0.822721917296468
"10",0.919509141438272
"11",0.0133348860288335
"12",0.980414327828453
"13",0.998426014784911
"14",0
"15",0.183682578721986
"16",0.035241843900073
"17",0.00821580314484027
"18",0.026793200010763
"19",0.037730102738063
"20",0.928851532771172
"21",0.966994948557828
"22",5.96188699386602e-06
"23",0.911399211163738
"24",0.999818323126534
"25",9.8891390748479e-06
"26",0.00776532564772192
"27",0.962797838251084
"28",0.615443431971027
"29",0.619531120399259
"30",0.0573507205310525
"31",1.76199166368463e-10
"32",0
"33",0.398757595312705
"34",0.60715842111195
"35",0.336138646474115
"36",0.011303334944035
"37",2.41450504034901e-09
"38",2.42967490571289e-09
"39",0.00633265089693846
"40",0
"41",5.1691975980761e-06
"42",1.11386006174108e-05
"43",0.06996801021175
"44",0.998891578910634
"45",0.00507909015282049
"46",0
"47",0.10962269781271
"48",1.48436818392383e-13
"49",0.483641187820717
"50",2.75495315449348e-09
"51",0
"52",0.909309388046606
"53",0
"54",2.8352712178048e-08
"55",0
"56",3.97459842815806e-14
"57",0
"58",0
"59",3.48721052034762e-13
"60",8.90472062753389e-08
"61",0
"62",0
"63",0.00115321052048722
"64",0
"65",0.395255559455776
"66",0.00157718698225073
"67",3.56481510976892e-12
"68",0
"69",0
"70",0
"71",0
"72",3.5346998360386e-05
"73",0
"74",0.000370497149782878
"75",0
"76",0.413135410006594
"77",0.740526604096795
"78",0.88169416513194
"79",0.65166455564035
"80",0
"81",0
"82",0
"83",0
"84",0
"85",0.0880748866859491
"86",0.799982533200053
"87",0.336655120930556
"88",0
"89",0.310826240081278
"90",0.431770699602721
"91",0.145568022365828
"92",0.383707580049375
"93",0
"94",0
"95",0.0599772659470872
"96",0.670216267193555
"97",0.327132105341345
"98",0
"99",0
"100",0.782797789880049
"101",0.181857980277397
"102",0.468404268918127
"103",0.507495807286196
"104",5.21804821573824e-15
"105",0.8361638083412
"106",0
"107",0
"108",0.454511884988293
"109",0
"110",0
"111",0
"112",0
"113",0.000353875427382966
"114",1.47115294857336e-06
"115",0
"116",1.23717239786103e-08
"117",0
"118",0.72037882867736
"119",0.555200614814271
"120",0.955001028658411
"121",0
"122",0
"123",0.215357408167468
"124",0.00255705413338292
"125",0.204287410716348
"126",0.0227963862832898
"127",0.841236177320099
"128",0.175844420634145
"129",0.420084555619762
"130",0.00847379259589265
"131",0.395526037915147
"132",6.31050767196939e-13
"133",0.496826956189855
"134",0
"135",0
"136",1.04427577696242e-11
"137",0.632573126605369
"138",0.12295044015438
"139",0.234816582834944
"140",0.862493996736725
"141",0.0367573240802882
"142",0.810744138843569
"143",0.069865568037219
"144",0.764117227194141
"145",0.212212916062274
"146",0.0907905781928571
"147",0
"148",0.674344927169733
"149",0.525900714667398
"150",0
"151",0.127949370656134
"152",6.48349647536239e-06
"153",0.393895837726218
"154",0.754456604929531
"155",0.428381107489422
"156",0.754500011996341
"157",0.911875621385316
"158",0
"159",0.609252691481134
"160",5.68075242401989e-09
"161",0.0712732623603521
"162",0.967663298428371
"163",0.602665336216935
"164",0.907158265143588
"165",3.7044186041113e-05
"166",0.134226910468846
"167",0.107693374768893
"168",0.718335469133866
"169",0.00291679801478206
"170",0.781772322560346
"171",0.300088626920454
"172",0.544824980220518
"173",0
"174",0
"175",0
"176",0
"177",0.00606134324156926
"178",0.000673732860127396
"179",0
"180",0.017982791702855
"181",0.0914794716295634
"182",0.000425341017142644
"183",0.00207047732148669
"184",0.00283925570295263
"185",0.207523656406103
"186",6.24308171826016e-09
"187",0.000786868559878307
"188",0.00306995048903014
"189",3.14748227481232e-13
"190",0.0815196060147463
"191",0
"192",0.0707098156350359
"193",0
"194",0.00117358928030409
"195",0.0053701601111994
"196",0.0162282803129645
"197",0.00430846046478894
"198",0.458681332169965
"199",0
"200",0.00397064419559467
"201",0.0202921484437172
"202",0
"203",0.00204479167690408
"204",0.0296906465763704
"205",0.00341202788518813
"206",0
"207",5.38991751231066e-09
"208",4.6074255521944e-14
"209",5.32907051820075e-15
"210",0
"211",0
"212",0
"213",0
"214",0
"215",0
"216",3.01166536154085e-09
"217",0.139514709564184
"218",0.00248695044078762
"219",2.49929454909648e-09
"220",0.000122157730750305
"221",0.000113124454170999
"222",2.73587730248437e-09
"223",0.126152636247862
"224",4.1594271015577e-05
"225",0
"226",0.00272338998843158
"227",0.158257037316944
"228",0.0728870246582217
"229",0.00350380050885268
"230",0.88249756416771
"231",0.00415042349988548
"232",0.000481221817535959
"233",0
"234",0
"235",0.03086370480795
"236",0.814809977603791
"237",0.0133644137804967
"238",4.850210714058e-06
"239",0.0492166798989794
"240",0.00192437783655031
"241",0.117563601141803
"242",0.00184024856378806
"243",0.143366212859244
"244",0.214110320612732
"245",0
"246",0.00624374630622948
"247",0.718772788975179
"248",0.178827058134127
"249",2.88645565560408e-07
"250",0.109129399882646
"251",5.47339951140202e-14
"252",0.0476183703788587
"253",7.4790690640647e-08
"254",0.302849686119203
"255",0.000748577204463863
"256",0
"257",0
"258",0
"259",0
"260",0
"261",2.64385541803858e-06
"262",0
"263",0
"264",0.000648714417975538
"265",0.340691361695713
"266",0.177215562615197
"267",0
"268",0.139169124433909
"269",8.54871728961371e-15
"270",0
"271",0
"272",0.0757457039466609
"273",0.949604491579408
"274",0
"275",0.000641872483142292
"276",0
"277",0
"278",0
"279",0.706964675816132
"280",0.6863832835633
"281",0.00697369894035726
"282",0.000245130032743845
"283",0
"284",0.809802785413415
"285",0
"286",0
"287",0.990913965861535
"288",0
"289",0
"290",0.629071290287631
"291",2.22044604925031e-16
"292",0
"293",0
"294",0
"295",0
"296",0
"297",0
"298",0
"299",0.327647666763889
"300",0
"301",1.58775486323037e-05
"302",0.298831645007659
"303",3.86287002385188e-10
"304",0.147228552268263
"305",0.981998322404839
"306",0
"307",0
"308",3.90798504668055e-14
"309",1.29969599607094e-05
"310",0.00684311567329998
"311",8.57771193518708e-07
"312",0
"313",0.0161937696512899
"314",1.68157461237772e-05
"315",0.00160674787456694
"316",1.69420033557799e-13
"317",0.00498834372852341
"318",0.00264169422623561
"319",0
"320",1.24344978758018e-14
"321",0
"322",0
"323",0
"324",0
"325",0
"326",1.95030118343986e-06
"327",0.00153101911211884
"328",0
"329",0.0246350393993451
"330",0
"331",0
"332",6.77702338691688e-12
"333",0
"334",3.53433187494367e-07
"335",2.98745945315204e-07
"336",1.10830122856953e-10
"337",4.64961402713016e-13
"338",0.866314246294412
"339",0
"340",1.2020466488849e-07
"341",0
"342",1.1019742895968e-09
"343",0.0444287207940457
"344",0.0171908257002602
"345",0.0291582124354881
"346",0
"347",0
"348",0
"349",0.460341893485575
"350",0
"351",0.0469163296861076
"352",0.00370121388785705
"353",0
"354",0
"355",0
"356",0
"357",8.74185279720052e-10
"358",0
"359",0
"360",3.20652488260409e-05
"361",2.79588352469773e-08
"362",1.07398998505648e-06
"363",2.64324464178678e-05
"364",0.112035481080717
"365",5.72519809338701e-12
"366",0
"367",0
"368",0
"369",0.00010932296313948
"370",0
"371",4.98459234998805e-08
"372",0
"373",1.23234755733392e-14
"374",0
"375",7.1689310943146e-07
"376",0
"377",0
"378",0
"379",0
"380",0.932518669236463
"381",0
"382",0
"383",0
"384",0
"385",0.407021619675958
"386",0
"387",0
"388",0.00543660168176252
"389",0
"390",0.0387263394491035
"391",0
"392",0
"393",0
"394",0
"395",0.634771764378208
"396",0.0989937773243317
"397",9.56354995196307e-11
"398",0
"399",1.82111447255551e-07
"400",3.71792304103558e-05
"401",0.0344453665549083
"402",1.11022302462516e-16
"403",0.645323933232842
"404",5.87728548495647e-06
"405",0.358009155430261
"406",7.97932577900617e-07
"407",2.12473122664925e-05
"408",0.992802065844359
"409",0
"410",5.58814835438515e-06
"411",2.14057789210687e-05
"412",0.0127872341114149
"413",0
"414",0
"415",0.0345371280696505
"416",2.87365442552812e-09
"417",0
"418",0.455115199173638
"419",0.440363656487339
"420",0
"421",0.668101768860951
"422",0.269681650514438
"423",0.102879440492834
"424",0.773256781648373
"425",0
"426",0.840698264083186
"427",0.567577498863234
"428",0
"429",0.945867594589086
"430",1.58328563593102e-08
"431",0.490502876064975
"432",0.00203348514801871
"433",2.89263233796966e-05
"434",7.44450683894948e-05
"435",0
"436",0
"437",0
"438",0
"439",0.751279959091561
"440",6.64945876138745e-12
"441",0
"442",0
"443",0
"444",4.50789058825674e-06
"445",0
"446",0
"447",0
"448",0
"449",3.00883762349713e-11
"450",0
"451",0
"452",0.180543169450465
"453",0.912336312473181
"454",0.154898730979053
"455",0.559447458024355
"456",2.46089498068258e-06
"457",0
"458",0.0316927223455328
"459",0.824717216674758
"460",0.442874716473001
"461",5.53467478292546e-07
"462",0.0012726145572507
"463",0.882344472824482
"464",0.807825977360076
"465",0.749887151741583
"466",0.761729938108693
"467",0.512818491779657
"468",0.77916758306205
"469",0.801138215082657
"470",0
"471",0.930309642615003
"472",0.324615417621415
"473",0.06393123676808
"474",0.135826828877605
"475",0
"476",0.591119608608097
"477",0.21489455309578
"478",0.375254334181418
"479",0
"480",0.964101246130296
"481",0.295316244653735
"482",0.00899184477400883
"483",3.5438318946035e-13
"484",0.556580934260297
"485",0.793779518471922
"486",0.000545055452397691
"487",0
"488",0.713484419575336
"489",0.483888277802991
"490",0
"491",0.713555297428563
"492",0
"493",0
"494",5.79686278854297e-05
"495",0
"496",0.524926591347993
"497",0.823323302801968
"498",0.153232843338911
"499",0.865925772088109
"500",1.83910367046458e-07
"501",0.648363103911388
"502",0.315864563194945
"503",0.899519022153755
"504",0.268334238930984
"505",0
"506",1.04743236658544e-05
"507",0
"508",4.08752920399991e-09
"509",0
"510",0
"511",0
"512",0.934806770807163
"513",0.211372616667822
"514",0.264321294772987
"515",0.195374254710694
"516",0.0724927091566683
"517",0.271132787891433
"518",0.657555855970589
"519",0
"520",0
"521",0.00964826749758141
"522",0
"523",0.0359886531534473
"524",0.987142199022204
"525",0.306467386923121
"526",0.0289463974891109
"527",0.106445316655084
"528",0
"529",0
"530",0
"531",0
"532",0
"533",0
"534",0
"535",0
"536",0
"537",0
"538",6.70064004282267e-12
"539",0.107316619338061
"540",0.0112904394929801
"541",0.433449994132402
"542",0.949232446643502
"543",0.663851176806371
"544",0.746441983967465
"545",0.419156583836077
"546",1.56319401867222e-13
"547",0.00642052954767858
"548",0.460645478703822
"549",0.546948844437217
"550",0
"551",0
"552",0
"553",0
"554",0.003215782085909
"555",0.158542441129547
"556",3.94084320731736e-10
"557",4.52859971744601e-13
"558",1.29318705077708e-07
"559",0
"560",0
"561",0
"562",0
"563",0
"564",0.442315121272911
"565",0
"566",0
"567",0
"568",0.0792257159725275
"569",0.704638529673071
"570",0.000306189098797316
"571",0
"572",0
"573",2.62238475434717e-05
"574",0.474270595244066
"575",0
"576",0
"577",0.010050029359513
"578",0.858603380431891
"579",0
"580",2.30174862947408e-07
"581",0.901382386505978
"582",1.43186737022738e-07
"583",0
"584",0.799519991342485
"585",0
"586",0
"587",0
"588",3.80695475143966e-13
"589",0.00247967463208743
"590",0
"591",0
"592",0.0918450377244009
"593",0.639870911864167
"594",0.585448955926614
"595",0.799945618220937
"596",0.0859726771355385
"597",0.0470147267779734
"598",0
"599",0
"600",0
"601",0
"602",7.09132752518826e-12
"603",6.66133814775094e-16
"604",0.000752577169402024
"605",0.384677296499289
"606",0.400898345974517
"607",0.0847180569874684
"608",0
"609",0
"610",0
"611",0
"612",0
"613",0.231471945277171
"614",0.335865533170615
"615",0
"616",8.36411492333156e-06
"617",0
"618",0
"619",0.773211487455506
"620",0.0036689685351915
"621",0.00617064433709025
"622",0
"623",0
"624",0.00535519653074945
"625",0
"626",5.03424336273373e-06
"627",8.99927724562488e-08
"628",0
"629",0.0203251197357242
"630",0.00012438164196571
"631",0.00290650238592327
"632",0
"633",0.000265323123637917
"634",0.0667542954346221
"635",0.0907493720468495
"636",0.0987793110139623
"637",0
"638",0.0792775402277676
"639",0.640661701649939
"640",0.00941399265967302
"641",0
"642",0.463981293343622
"643",0.000126520947162034
"644",6.26068419329329e-10
"645",3.7114755713219e-13
"646",1.28478561123302e-10
"647",0
"648",7.58471063733168e-12
"649",1.02096040188737e-06
"650",0.0823512410860396
"651",0
"652",0
"653",0
"654",0.0282049804812657
"655",0.000622861173237177
"656",0.178391409701217
"657",0.041009834853188
"658",0.0523138278285258
"659",0
"660",0
"661",5.28696689758856e-05
"662",0.65999334361634
"663",0.211547900042854
"664",0.000824129194871515
"665",0
"666",0.000251454251625094
"667",0
"668",0.0028626871080013
"669",4.77395900588817e-15
"670",0.016386471367383
"671",0.00211665956036378
"672",1.77735604012241e-12
"673",0.318767543138303
"674",0.0012611973056863
"675",7.59958196372423e-09
"676",0
"677",6.47382634910709e-06
"678",0.000743518243422892
"679",0.122171693590468
"680",0
"681",0.00139043240597947
"682",0.0168777768306743
"683",0
"684",0
"685",0
"686",6.46249942448662e-10
"687",0.397024271461867
"688",2.75926862025599e-07
"689",9.34979871303199e-11
"690",0
"691",0
"692",0.114508319714483
"693",0.101822452304497
"694",5.35496647025013e-10
"695",0
"696",0.0732091474272656
"697",0.137110745738994
"698",2.30970234915695e-06
"699",0
"700",0.00250847333779414
"701",0.632969625365414
"702",0.00664352334943785
"703",8.65973959207622e-15
"704",0
"705",0.00194594075749244
"706",5.14752709102062e-06
"707",0
"708",0.00888254101774555
"709",0.0854593728866465
"710",0.0126069711770371
"711",0
"712",0.00215446158095012
"713",2.51246600635469e-07
"714",0.0049954603732153
"715",6.32827124036339e-15
"716",0
"717",5.4931275084158e-09
"718",8.06753552851092e-11
"719",0.0351230529633378
"720",0.0639953624209881
"721",0
"722",0
"723",0
"724",0.000114305158278039
"725",0
"726",0.023742785692612
"727",0
"728",1.22124532708767e-15
"729",0
"730",0.296735636475285
"731",0
"732",0
"733",0
"734",0.00025699524014744
"735",0.785368226642591
"736",0.00128426822320815
"737",0.900404011528918
"738",0.260490266104193
"739",0.150460883551081
"740",0.0171416133372807
"741",0
"742",2.45422082656432e-09
"743",0.353943877529157
"744",0
"745",6.80645718009742e-07
"746",0
"747",0
"748",0.00964544813195378
"749",0
"750",0.0769500344732892
"751",0
"752",0.413651095145073
"753",0.473397819703671
"754",0
"755",0.996485087057348
"756",0.155527671947966
"757",0
"758",0.161898891999557
"759",0
"760",2.59792187762287e-14
"761",2.05186978519123e-10
"762",0
"763",8.18683454362201e-10
"764",1.56727386624311e-09
"765",0.0506412676654927
"766",0
"767",0.647737025774424
"768",0
"769",6.15800315370008e-05
"770",0.766098899737975
"771",0.0839737955251255
"772",0
"773",0.183948411385084
"774",0.139911558445524
"775",0.000227344122925022
"776",0
"777",1.97185601180649e-11
"778",0.792601408570948
"779",3.28959082196434e-13
"780",0
"781",2.97422129036384e-07
"782",0
"783",0.00235180990448214
"784",0
"785",0.000932253295601315
"786",0.102526325037455
"787",7.92296223073308e-08
"788",1.68198788230711e-13
"789",0.00324876053768619
"790",0.0258303443652204
"791",0.0351410654838161
"792",0.528121004379413
"793",4.90396076292532e-05
"794",0.000337261063154459
"795",0
"796",1.22901688826005e-13
"797",0.0016603765978066
"798",0.0253604307782652
"799",0.0433038451754032
"800",0
"801",0.000149432143295658
"802",0
"803",0
"804",0
"805",0
"806",0.186892038352699
"807",0.00171165561337938
"808",0
"809",2.29905606030645e-06
"810",0
"811",0.0389523563399419
"812",0.941115969090049
"813",0.00147091176789416
"814",4.3307621400146e-07
"815",1.00331115101548e-05
"816",0.0143342506671306
"817",0.122474234187355
"818",0.014844585144053
"819",9.74242436202477e-06
"820",0.890258121651681
"821",0.00288357844928844
"822",0.200915928763097
"823",0.000591700411414098
"824",0.0318579912927348
"825",0.000145875684954833
"826",0
"827",0.43272211356621
"828",0.000580894773989482
"829",0.027883403863455
"830",0.00544591339237943
"831",0.00662521864290255
"832",2.83670465478503e-05
"833",0.0226332499135861
"834",0.283020042583854
"835",0.00286616556451902
"836",0.00733985972773943
"837",5.76289619882431e-05
"838",0.00260981383250125
"839",0.669127150627449
"840",0.340052274955858
"841",0.637722251739808
"842",0.270611233391218
"843",0
"844",0.898040125886759
"845",0.274479280190667
"846",0.0011659007477316
"847",0.248846024468945
"848",0.00186086380427852
"849",0.49328830351399
"850",0
"851",0
"852",0.0333549382968549
"853",0.269409786914994
"854",2.30485939345382e-06
"855",0
"856",0
"857",9.71138803249616e-05
"858",0.0381181691496342
"859",0.532234850557772
"860",1.79222236765808e-05
"861",0.206703983643859
"862",0.00129529490357227
"863",0.00168407812784199
"864",0.0765667763002988
"865",4.37649916307237e-13
"866",0
"867",0.0506962804234465
"868",0.00225639961103719
"869",0
"870",7.48167831576829e-07
"871",0.000773125950593201
"872",0.376562680066679
"873",0.299884718151575
"874",2.90792461010714e-06
"875",0.0569102210225444
"876",0.317978403239949
"877",0.0202353963247527
"878",0.217423719142313
"879",0.12086670774771
"880",0.00149525526826511
"881",0.0102176009239942
"882",0.018707481175475
"883",4.90226609051181e-06
"884",0.345080704888852
"885",0.0464164559183063
"886",0.149286657048033
"887",0.00449506467637217
"888",0.321567599576699
"889",0
"890",2.60485101266639e-08
"891",8.41048502953079e-07
"892",0.0894467397738529
"893",4.62232654929728e-07
"894",0.144785165109236
"895",1.75285217007826e-06
"896",0.00956605768139518
"897",0
"898",2.76036987834072e-06
"899",0.0407681644772362
"900",0
"901",0.214811923693825
"902",4.33114027637016e-05
"903",0.00205957910916565
"904",0.106145766444766
"905",0.0287211128487173
"906",0.189469647345044
"907",0.00136469430320274
"908",0.000273414668908067
"909",3.6786539668876e-05
"910",0
"911",0
"912",0.0615646814307004
"913",0.825933580007587
"914",1.8688256555599e-06
"915",4.44089209850063e-16
"916",0
"917",0.000802457782544619
"918",1.72003857823455e-08
"919",0
"920",0
"921",0
"922",7.19697705875433e-08
"923",0.0187388998502785
"924",0.0156987967092026
"925",0
"926",0
"927",0.0604745334853071
"928",5.63383877496548e-05
"929",0
"930",0
"931",0
"932",0
"933",0.0310460182476635
"934",0
"935",4.67568232398463e-06
"936",4.79083772653155e-10
"937",0.00359580842684093
"938",0.0937908543398213
"939",2.66675570514963e-12
"940",0
"941",0
"942",0.135791560816506
"943",0
"944",0
"945",0
"946",0.0752540518832406
"947",0.410910263375336
"948",0
"949",0
"950",0.148026059915255
"951",0.887031637149106
"952",0.113029199435239
"953",0.0271023547771087
"954",4.24365675932847e-09
"955",0
"956",0.00177617289915888
"957",0.414087724356471
"958",0
"959",0
"960",0
"961",0.401134136818255
"962",0.000149276265536069
"963",0.113135837759837
"964",1.81546801559795e-05
"965",0.0640951225879173
"966",0
"967",0.00542666993350827
"968",0.00069634850509892
"969",0
"970",0
"971",0
"972",0
"973",0.574072138896112
"974",0
"975",0.00324185928343168
"976",0.330259474048894
"977",0.076138097480826
"978",0.0148711210324188
"979",0
"980",0.284197925575404
"981",0.1206734437461
"982",5.99520433297585e-15
"983",0
"984",0
"985",0
"986",0
"987",0
"988",8.88178419700125e-16
"989",0
"990",1.24413437110338e-05
"991",0
"992",0
"993",0.000699967255639145
"994",0.367982121300066
"995",0
"996",0
"997",0
"998",0
"999",0.0028011090608232
"1000",0
"1001",0.0117425311131545
"1002",0
"1003",0
"1004",6.43929354282591e-15
"1005",0
"1006",0.000642417509326698
"1007",0.000415538317136699
"1008",0
"1009",8.90496298922017e-09
"1010",0.0027682953649546
"1011",4.42979428216805e-06
"1012",0
"1013",0
"1014",0
"1015",0
"1016",2.72018185754064e-10
"1017",2.35074841326011e-06
"1018",0
"1019",0
"1020",0
"1021",0
"1022",0
"1023",0
"1024",5.7804392106231e-07
"1025",0
"1026",3.61010648533e-05
"1027",0
"1028",0
"1029",0
"1030",2.35367281220533e-14
"1031",0.00250302983672812
"1032",2.62012633811537e-14
"1033",1.10783393569847e-09
"1034",0.0277050957426861
"1035",0
"1036",1.69771785518691e-09
"1037",0.000201654961591524
"1038",0
"1039",0
"1040",5.88418203051333e-15
"1041",7.32747196252603e-15
"1042",0.228232275827671
"1043",0.0861764521079136
"1044",0
"1045",0.12698630602617
"1046",0
"1047",0
"1048",0
"1049",0
"1050",0
"1051",0
"1052",0
"1053",2.44249065417534e-15
"1054",0
"1055",0.154132447801642
"1056",0.057896578007762
"1057",0
"1058",2.31229479896733e-07
"1059",0
"1060",0
"1061",0.000859881449321365
"1062",1.28008714739281e-13
"1063",0.160221110846977
"1064",0
"1065",0.309599955442715
"1066",0.00896460159751011
"1067",0
"1068",0
"1069",0.00466151583666552
"1070",0.715501138297757
"1071",0
"1072",0
"1073",0
"1074",0.000436951139954234
"1075",0.191165972780343
"1076",0
"1077",0
"1078",0
"1079",8.8928864272475e-14
"1080",1.11022302462516e-16
"1081",0
"1082",0
"1083",0
"1084",0
"1085",0
"1086",0.0208561485924246
"1087",0
"1088",0
"1089",0.140775210745444
"1090",0.919291105855252
"1091",0
"1092",2.36775297812741e-07
"1093",0.0760606282118119
"1094",0.475381294401078
"1095",0.152089340306163
"1096",0
"1097",0.00444792614504641
"1098",1.47033656239248e-06
"1099",0
"1100",0.00115600905560542
"1101",0.0425422814317037
"1102",0
"1103",3.34406421442779e-08
"1104",0
"1105",0
"1106",4.98490138056695e-14
"1107",0
"1108",0.0636504797116231
"1109",0
"1110",0
"1111",0.00590366400183717
"1112",0
"1113",0.000626284769912111
"1114",0
"1115",0
"1116",0
"1117",0
"1118",2.1094237467878e-15
"1119",0
"1120",1.628966389422e-05
"1121",9.90082460461394e-11
"1122",0.207318281463619
"1123",0
"1124",0
"1125",0
"1126",0
"1127",0
"1128",1.33226762955019e-15
"1129",1.0007994433181e-11
"1130",0
"1131",0
"1132",0.113787676200614
"1133",0
"1134",0
"1135",0
"1136",0
"1137",0
"1138",0
"1139",1.44082687428826e-05
"1140",0
"1141",0
"1142",0.00251403072057799
"1143",0
"1144",0
"1145",0
"1146",0
"1147",4.99933427988708e-13
"1148",0.0102126690927987
"1149",0.105679421785872
"1150",0
"1151",0
"1152",3.18753839656516e-07
"1153",2.07151651665516e-05
"1154",0.000136527444064671
"1155",0.00191298713048349
"1156",0
"1157",0.188878043429676
"1158",0.632820515248689
"1159",0.929425908013115
"1160",0
"1161",0.0275630190350515
"1162",0.0795442165221557
"1163",5.99646120137409e-05
"1164",0
"1165",0.183151129559952
"1166",0
"1167",2.10240824749519e-10
"1168",0.000159077525859974
"1169",0
"1170",0
"1171",0
"1172",0.000201541776757241
"1173",0.453413619967421
"1174",0
"1175",0.206537222841666
"1176",0.000878188326075113
"1177",0.0693381966967233
"1178",0
"1179",0.364881201681608
"1180",0.432270123755759
"1181",0.208771471430423
"1182",0.0577235959988001
"1183",0.461791162428959
"1184",0.0239603783151286
"1185",0
"1186",0.0337231810900233
"1187",0.000405880755356747
"1188",0
"1189",0.321333207884592
"1190",2.4535928844216e-14
"1191",0
"1192",0
"1193",0
"1194",1.53339146280462e-06
"1195",0.585453840310324
"1196",0
"1197",0
"1198",0
"1199",1.72477941928761e-08
"1200",0
"1201",0
"1202",0
"1203",4.57519043731702e-05
"1204",0
"1205",0.022008357632305
"1206",0.663644091064802
"1207",0.00206070200306152
"1208",0.0168489673917862
"1209",0.538321916650774
"1210",0
"1211",0
"1212",0.104726910819126
"1213",0.890515682726369
"1214",0.0418506278477838
"1215",0.842244598440472
"1216",0.592930287697613
"1217",5.81887439976558e-05
"1218",0
"1219",0
"1220",0
"1221",0.666953217817099
"1222",0
"1223",0
"1224",0
"1225",0
"1226",0
"1227",0
"1228",0
"1229",2.63908047670736e-06
"1230",0.406492614442337
"1231",0.627393519722358
"1232",0.669759893673838
"1233",0.0162029761592175
"1234",0.233486500871606
"1235",0.000123693873727126
"1236",0
"1237",0.690531493512712
"1238",0.00323706653376665
"1239",0.0914235436288091
"1240",0.941434589457858
"1241",4.36215431753872e-06
"1242",0.259648542232799
"1243",8.9997331809144e-10
"1244",2.63887844186295e-05
"1245",0
"1246",0.0503564026457817
"1247",0
"1248",0.00989526156198395
"1249",0.445027344204215
"1250",0.330230785483124
"1251",0.0718711678573287
"1252",0.503813799526328
"1253",0
"1254",0
"1255",0
"1256",0
"1257",0
"1258",0.114562278425731
"1259",0
"1260",0
"1261",0
"1262",0
"1263",3.63271660530629e-08
"1264",0.894627555237452
"1265",0
"1266",0
"1267",0.00159559546244681
"1268",1.09287023875027e-10
"1269",5.4574830415044e-05
"1270",0.338180190140558
"1271",0.0680072245186537
"1272",0
"1273",0.13747379647092
"1274",0.139581589174882
"1275",0.000250653744181872
"1276",0.0629125957609827
"1277",0.0258594737686956
"1278",0
"1279",0
"1280",0
"1281",0.767854620964573
"1282",0.0346566494598269
"1283",0
"1284",0.376462484489034
"1285",0
"1286",6.3300921471221e-07
"1287",3.48811525219261e-08
"1288",0
"1289",0
"1290",0.0487072397314186
"1291",0
"1292",0.157288658695089
"1293",0
"1294",0
"1295",4.86329636660843e-05
"1296",0.496016024821478
"1297",3.91594047133292e-05
"1298",0
"1299",0
"1300",0
"1301",0
"1302",0
"1303",0.411540015801904
"1304",0.986813677448993
"1305",0.598924292414836
"1306",9.69911401982326e-06
"1307",0.00262845211983143
"1308",0.107471207626734
"1309",0
"1310",0
"1311",0
"1312",0.00657235464898942
"1313",0
"1314",0
"1315",0
"1316",0.00464079473505141
"1317",0.0109463160632453
"1318",0.0867368812196575
"1319",0.528914792726475
"1320",1.4466514430822e-08
"1321",0
"1322",0.0384428406138353
"1323",0.0410771952579223
"1324",0
"1325",0
"1326",0
"1327",0.0630518228546986
"1328",0
"1329",0.00385865349503922
"1330",9.72389735398593e-09
"1331",0.358412651221813
"1332",0.000538666671692889
"1333",0.0990772979952466
"1334",3.74384144385953e-06
"1335",0
"1336",0
"1337",0
"1338",0
"1339",0
"1340",2.24886802957514e-07
"1341",0
"1342",0
"1343",0
"1344",0
"1345",0
"1346",0
"1347",0
"1348",0
"1349",4.67933525261088e-09
"1350",0
"1351",0
"1352",0
"1353",0.414856533972571
"1354",1.51027182981878e-08
"1355",0
"1356",0
"1357",0
"1358",1.27187149701058e-12
"1359",0.00132521850721712
"1360",0
"1361",0
"1362",0
"1363",0
"1364",0
"1365",6.41375841325953e-13
"1366",0
"1367",0
"1368",0
"1369",0
"1370",1.00525095912962e-05
"1371",3.08950891986237e-05
"1372",0
"1373",7.62868587411702e-07
"1374",0.000998192361347128
"1375",1.63793858631855e-05
"1376",0.0209212916115381
"1377",0.392606946497254
"1378",0.00101159686126406
"1379",6.45040580148359e-05
"1380",0.0556058236211698
"1381",0.0023898064847887
"1382",0.00417192768538388
"1383",0.0074116753514204
"1384",9.99200722162641e-16
"1385",0
"1386",0
"1387",0
"1388",0
"1389",0
"1390",6.66133814775094e-16
"1391",0
"1392",0
"1393",0
"1394",1.15352172258554e-13
"1395",0
"1396",1.42172563721843e-08
"1397",1.91291427142914e-13
"1398",0
"1399",1.11022302462516e-16
"1400",3.62340718873533e-06
"1401",2.56627497030593e-10
"1402",0.00299493160446285
"1403",0
"1404",9.29488495060582e-06
"1405",0.00148247364317611
"1406",0.000927499578635804
"1407",0
"1408",5.52032839066241e-05
"1409",0.253535595485328
"1410",0.294989921664784
"1411",0
"1412",0.0429243079492033
"1413",0
"1414",1.15544530610023e-08
"1415",3.9653251659999e-07
"1416",0.0720319073540969
"1417",8.82523692968817e-06
"1418",0.00494159661608551
"1419",1.75536353830275e-06
"1420",3.70816275463426e-08
"1421",0.0118899392058394
"1422",0.0011402799798883
"1423",4.24712265356675e-10
"1424",0.000137230958852985
"1425",2.58510673161183e-05
"1426",3.38994257109704e-08
"1427",0.00169517154863053
"1428",0
"1429",0
"1430",0
"1431",0
"1432",0
"1433",1.64168678651322e-12
"1434",0.000302584062897293
"1435",4.44681304984096e-05
"1436",0.000800417114793506
"1437",4.88498130835069e-15
"1438",1.74762977661613e-05
"1439",0.000506290719661684
"1440",6.48481268683554e-13
"1441",0
"1442",0
"1443",2.19520895436975e-05
"1444",3.12971870641832e-12
"1445",0.000171950200638871
"1446",2.00471306222028e-09
"1447",0
"1448",1.01317171319337e-08
"1449",2.35121921932091e-11
"1450",3.3673563981651e-07
"1451",3.44220000170203e-06
"1452",5.90963944446798e-11
"1453",0.0159224146328734
"1454",8.39328606616618e-14
"1455",2.65668598231628e-11
"1456",1.4432899320127e-14
"1457",0
"1458",3.32884578498893e-05
"1459",0.040879674360905
"1460",1.50808545434922e-05
"1461",7.19112085030282e-05
"1462",3.0693447783392e-11
"1463",0
"1464",0
"1465",0.00668915670564985
"1466",0.000155578102364107
"1467",0
"1468",1.69160470520069e-07
"1469",0
"1470",2.22044604925031e-16
"1471",0.616561816241512
"1472",0.0633992447239601
"1473",0
"1474",2.03640547424833e-07
"1475",0.00928725929783614
"1476",0
"1477",4.75175454539567e-14
"1478",1.12380105221632e-11
"1479",1.79489756391149e-12
"1480",3.90537733978569e-05
"1481",0.0318072931701491
"1482",0.226563431317234
"1483",0
"1484",0
"1485",4.44089209850063e-16
"1486",0
"1487",0
"1488",1.03873014141165e-05
"1489",0.170160301736607
"1490",9.83275794889105e-05
"1491",0.00619047621673563
"1492",0.00929333477879479
"1493",0.337854245351876
"1494",0.897245233479836
"1495",0
"1496",0
"1497",0.112740497685471
"1498",0.427453366020005
"1499",0.35589902217501
"1500",0
"1501",4.07935019097749e-10
"1502",0
"1503",0
"1504",1.82367608270173e-06
"1505",0
"1506",0
"1507",0
"1508",0
"1509",0.0010902508090227
"1510",0.000704160420938127
"1511",1.06137210847956e-05
"1512",0.00334793010657031
"1513",7.62240531637648e-06
"1514",6.41230305984397e-05
"1515",8.8827550537296e-08
"1516",0
"1517",0
"1518",0.00295772815713724
"1519",0.0443870058378992
"1520",2.14017692456991e-12
"1521",0.0005563975435533
"1522",0.00326554004066693
"1523",0.0158226830861499
"1524",2.54545760580704e-07
"1525",4.50924630968075e-10
"1526",2.1094237467878e-15
"1527",0
"1528",0
"1529",0
"1530",0.0865251969285615
"1531",0.0473573744214727
"1532",0.144214382886806
"1533",0.00018179511909755
"1534",0.122358662026249
"1535",0.290562548850882
"1536",0.531368224500245
"1537",0.172253784649125
"1538",0.957844284567639
"1539",0.145217694463415
"1540",0.023585742998482
"1541",0.937164977138757
"1542",1.05923127602381e-07
"1543",0.00114373983638638
"1544",0.336389714993017
"1545",0.102081827778969
"1546",0
"1547",0
"1548",0.00111537318406274
"1549",0.021411445962122
"1550",0.835245353461215
"1551",0.0461214108528083
"1552",0.00594190111204163
"1553",2.83882484186648e-09
"1554",0.000172683929857143
"1555",0.0413082293671619
"1556",0.924619961261442
"1557",0.174595278054943
"1558",0.687777286258551
"1559",0.0146791105988308
"1560",1.11022302462516e-16
"1561",0.0921445099153265
"1562",0.00518884073963355
"1563",0.000637282909986991
"1564",2.07187239638085e-05
"1565",0.0295355022676058
"1566",6.68802722536554e-07
"1567",0.0131671026506873
"1568",0
"1569",0
"1570",0.657627015651291
"1571",0.542946249242012
"1572",0.00158520016021069
"1573",0.143282052591319
"1574",0.0381816727312916
"1575",0.737927707532277
"1576",1.71957570405112e-08
"1577",0.138737340540028
"1578",0
"1579",0
"1580",1.7539066865524e-09
"1581",0.0649298729727558
"1582",0
"1583",0
"1584",0.774796054851235
"1585",0.454619692909007
"1586",1.00477085984707e-06
"1587",0
"1588",0
"1589",0
"1590",0
"1591",0
"1592",8.68536224538641e-05
"1593",0
"1594",0
"1595",0
"1596",8.03779812708072e-08
"1597",0.00489693955984549
"1598",1.37932707192645e-05
"1599",0
"1600",0
"1601",5.26245713672324e-14
"1602",0
"1603",1.11022302462516e-16
"1604",0
"1605",0
"1606",0.484584458432263
"1607",6.52289288138874e-08
"1608",0.00283178206286028
"1609",0
"1610",0
"1611",9.62273246640777e-07
"1612",0
"1613",0.16655070184504
"1614",0.374225531263849
"1615",0.503395488118304
"1616",0
"1617",0.161220313838639
"1618",0
"1619",0.000140914055097752
"1620",0
"1621",0
"1622",1.51629410916065e-07
"1623",0.880335048476788
"1624",0
"1625",5.21558740640415e-09
"1626",0.00279325708702483
"1627",0.000869496098571787
"1628",0
"1629",0.283668953211324
"1630",0.00561103325784906
"1631",0.0080134863973631
"1632",0.270296293286397
"1633",0.519675987200065
"1634",0
"1635",4.67453130870155e-07
"1636",0.0945521238211735
"1637",0.0379354030753156
"1638",0.0424921261680022
"1639",6.99440505513849e-15
"1640",0.888009696500498
"1641",0.0212584915278401
"1642",0
"1643",3.77475828372553e-14
"1644",0.000811369628262892
"1645",0.00025939569621003
"1646",8.02435895508324e-12
"1647",0
"1648",0
"1649",0
"1650",0
"1651",0.000157726976864114
"1652",0.0784856107453515
"1653",0
"1654",0
"1655",0.00194335415531277
"1656",0.000183466684521849
"1657",0
"1658",0.441436707028779
"1659",0.631342755239512
"1660",0.0205318425372907
"1661",0
"1662",4.65010158157142e-08
"1663",1.00889245402414e-07
"1664",0
"1665",0
"1666",0.00678808531868957
"1667",0
"1668",0.0812423721702243
"1669",0.00546582024305065
"1670",0
"1671",0
"1672",0
"1673",0
"1674",0
"1675",0
"1676",0
"1677",0.00136562881416646
"1678",0.15177802410548
"1679",1.74789072104886e-11
"1680",0.000868111224188728
"1681",0.685998480553226
"1682",0.0959489100116042
"1683",0
"1684",0.0931380605860888
"1685",0
"1686",3.83393857650294e-06
"1687",6.3445471099044e-11
"1688",0.000944618001479158
"1689",0.176962198445075
"1690",0.0111354945240559
"1691",0.393918159524901
"1692",0
"1693",0.138842523923111
"1694",0.0408820254671679
"1695",5.07612896161191e-09
"1696",0
"1697",0
"1698",0.0773012988640656
"1699",2.35081747179677e-07
"1700",0.00124781275374575
"1701",0.0190854981408602
"1702",0.00835241522941477
"1703",0
"1704",0
"1705",0
"1706",1.36838891698909e-05
"1707",1.67140745688243e-11
"1708",0.802278941318742
"1709",0
"1710",0
"1711",0.0102867326651368
"1712",1.80518236592153e-06
"1713",0
"1714",0
"1715",2.45363322881609e-07
"1716",0
"1717",0
"1718",0.433803789196855
"1719",0.407373167854816
"1720",0
"1721",0
"1722",0
"1723",0
"1724",0.00014545220951645
"1725",4.84178697135462e-10
"1726",9.61416997252718e-05
"1727",1.8481539565407e-07
"1728",0
"1729",0.000305818969531413
"1730",2.0785316801053e-09
"1731",0.026299986093009
"1732",0
"1733",1.09115383395419e-10
"1734",0
"1735",0
"1736",0.174367227555317
"1737",0.00953749313195784
"1738",2.91520792706779e-05
"1739",0
"1740",0
"1741",0.0732222099452411
"1742",0.437373484773177
"1743",5.19336041282514e-07
"1744",0
"1745",0
"1746",0
"1747",0.000639414171215935
"1748",3.35278630808622e-05
"1749",0.00967346431214455
"1750",0
"1751",0.000442893219153251
"1752",0.000454934991974132
"1753",3.0829783170816e-12
"1754",0
"1755",2.43138842392909e-14
"1756",0
"1757",0
"1758",0
"1759",0
"1760",0
"1761",4.19535606255295e-09
"1762",0
"1763",2.04370632815865e-05
"1764",4.39195046997298e-09
"1765",0
"1766",0
"1767",0.000948767930341932
"1768",0.00394395691748717
"1769",0
"1770",0
"1771",0
"1772",0
"1773",6.3790773630279e-05
"1774",7.01549929260636e-13
"1775",5.55111512312578e-16
"1776",0.355888652908465
"1777",0
"1778",0.524628219485992
"1779",0.00767102077068815
"1780",0
"1781",0
"1782",0
"1783",0
"1784",0
"1785",0
"1786",0.0179410320239013
"1787",0.133041847171247
"1788",0
"1789",2.77256280156735e-08
"1790",0
"1791",0
"1792",0
"1793",0.00152196994259857
"1794",0
"1795",0.000173121130726761
"1796",4.70731287283144e-09
"1797",0.841601830442335
"1798",0
"1799",0.272319570610611
"1800",0.000169955081606998
"1801",0
"1802",0.00354735733335843
"1803",0.0062168594963331
"1804",0
"1805",1.82076576038526e-14
"1806",1.05638809388964e-06
"1807",0.0274929441878726
"1808",5.17718912185217e-09
"1809",0
"1810",4.07629485721372e-12
"1811",0.79316249129681
"1812",0.00375939726893448
"1813",0
"1814",0
"1815",0
"1816",0
"1817",0
"1818",1.09667053216356e-10
"1819",0
"1820",0
"1821",0
"1822",0
"1823",1.64313007644523e-14
"1824",1.53272045859687e-05
"1825",0
"1826",0
"1827",0
"1828",0
"1829",2.74835709745958e-12
"1830",0
"1831",0
"1832",0.38568639074292
"1833",0
"1834",1.28813071320621e-10
"1835",0
"1836",0.0116995007822679
"1837",0.000290206193431786
"1838",0
"1839",0
"1840",3.38866609672639e-06
"1841",0.00261378396736645
"1842",3.5802472098112e-12
"1843",0
"1844",0
"1845",0
"1846",0
"1847",0
"1848",0
"1849",0
"1850",1.75648495415182e-07
"1851",1.31008687453971e-06
"1852",0
"1853",1.35626564734537e-06
"1854",0
"1855",6.42889355363385e-05
"1856",0.000949129398044701
"1857",4.71145344960178e-12
"1858",2.24166286445504e-05
"1859",0
"1860",0
"1861",0.000153639643484027
"1862",0
"1863",0
"1864",0
"1865",0.00422907867877609
"1866",0
"1867",1.90958360235527e-13
"1868",9.72723702696854e-08
"1869",0
"1870",9.00834962180852e-13
"1871",3.33066907387547e-16
"1872",4.44089209850063e-15
"1873",0
"1874",0
"1875",0
"1876",0.00695141762356155
"1877",0
"1878",0
"1879",0.038114317021082
"1880",0
"1881",0
"1882",0.282329188494569
"1883",0
"1884",0
"1885",0
"1886",4.72346384228217e-10
"1887",0
"1888",0.0620889499101486
"1889",9.65894031423886e-15
"1890",0
"1891",0.0225639601900997
"1892",0
"1893",0.0210063871020644
"1894",0.25548263915951
"1895",0
"1896",0
"1897",0
"1898",0
"1899",0
"1900",0.0478449249008938
"1901",0
"1902",0
"1903",0.074033306794636
"1904",0.0700730721944488
"1905",9.99200722162641e-16
"1906",2.02060590481778e-14
"1907",0.000661197979652473
"1908",0.367852471928031
"1909",0
"1910",0
"1911",0
"1912",0
"1913",0
"1914",0
"1915",6.26004137416203e-10
"1916",0
"1917",0
"1918",0.456216300495769
"1919",0.596261228187301
"1920",0.100255384126975
"1921",0
"1922",0.914660257336013
"1923",0.0102299917387683
"1924",0.585253948109471
"1925",0.440929750365378
"1926",0.458259469291623
"1927",0.811980675647742
"1928",0.20274043657247
"1929",2.92887185171509e-07
"1930",0.619339937372439
"1931",0.702231807112428
"1932",0.990856661147882
"1933",0.0253160539503882
"1934",0.292830201553506
"1935",0.66137426497787
"1936",0.394937319756345
"1937",0
"1938",0.412925032132986
"1939",0.966061556775504
"1940",0.218074401208171
"1941",0.0342061813252771
"1942",0.209931257985116
"1943",0.152346561705072
"1944",0.429746634739819
"1945",0
"1946",4.77617945193742e-13
"1947",0
"1948",3.43565926076428e-05
"1949",0.385457659241492
"1950",0
"1951",0.731915307200672
"1952",0.187059112457727
"1953",1.75409278162508e-05
"1954",0.270453771201065
"1955",5.44172484850947e-11
"1956",0
"1957",0.00962404566923847
"1958",0.780303475123789
"1959",0.839773374835115
"1960",0.579001099770456
"1961",0.666480914140125
"1962",0.739014992005374
"1963",0.690880710914844
"1964",0
"1965",0
"1966",0
"1967",0
"1968",0.126845525112935
"1969",0.0277304705799126
"1970",0.567746546223698
"1971",1.27984645104107e-09
"1972",0.878294839324506
"1973",7.44567740795787e-11
"1974",0
"1975",0.986584327020781
"1976",0.957229731482906
"1977",0.0519731995215459
"1978",0.594541458828566
"1979",0.6715614965732
"1980",0.000255999129772921
"1981",0.353855072946469
"1982",0.9295311556436
"1983",0.0435432033538176
"1984",0.819935884150133
"1985",0.00220278522459161
"1986",4.53920123710816e-10
"1987",0
"1988",0.0338258516457755
"1989",6.73844313681116e-09
"1990",0.171672249021322
"1991",0.961607914631911
"1992",0.929873487141805
"1993",0.655689480041195
"1994",0.793937661023157
"1995",0.613138430199794
"1996",0.88522565559088
"1997",0.788074706247274
"1998",0
"1999",0.720491341856968
"2000",0.00438283230663938
"2001",0
"2002",0
"2003",0.590253764537773
"2004",0.411685736630164
"2005",0.968127649307809
"2006",0.257394334514746
"2007",0
"2008",0
"2009",0
"2010",0.0035368053571132
"2011",0.400048063873945
"2012",0.731058067628039
"2013",0.692974449124654
"2014",0
"2015",0
"2016",0.0538033324752026
"2017",0.903402259572098
"2018",0.377861879586987
"2019",0.011645333090995
"2020",0.00447870986663024
"2021",0.922997415815475
"2022",0
"2023",0
"2024",0
"2025",0
"2026",0.391746580393821
"2027",0.497062634104271
"2028",0.498198638698441
"2029",0
"2030",0
"2031",4.93791423750167e-07
"2032",0.545747814830172
"2033",9.625222840981e-11
"2034",0.955708710280188
"2035",0
"2036",0
"2037",0
"2038",0
"2039",0.649273069015
"2040",0.0701913186159538
"2041",0.807995660302322
"2042",0
"2043",0.251880957781185
"2044",0.959315118459705
"2045",0
"2046",0
"2047",0
"2048",0
"2049",0.464596643667868
"2050",0.833123298184555
"2051",0.211947796113089
"2052",0.852886849619886
"2053",0
"2054",0.374874858007002
"2055",0.343269103307024
"2056",0.802809850741917
"2057",0
"2058",0
"2059",0
"2060",0
"2061",0
"2062",0
"2063",0
"2064",0
"2065",0.635230680430966
"2066",0
"2067",0.000119182188141442
"2068",0.000517262540173369
"2069",5.43418012211028e-06
"2070",7.72693041783956e-06
"2071",0
"2072",0
"2073",1.60094160150948e-13
"2074",3.7869525293388e-09
"2075",0.343578142437664
"2076",0
"2077",0
"2078",0
"2079",1.50437884371968e-09
"2080",0
"2081",9.00797921976615e-06
"2082",0
"2083",5.00021728466749e-08
"2084",0
"2085",0.0699626013335779
"2086",0.000770665633165635
"2087",0.00148949416464983
"2088",6.8169381250982e-10
"2089",4.97246799291418e-10
"2090",2.30697794201262e-10
"2091",2.86303203367311e-11
"2092",4.75829130541783e-08
"2093",0.218396641823872
"2094",2.40894602997477e-05
"2095",0.112476443511135
"2096",0.0425291311179772
"2097",2.46236364631613e-12
"2098",4.93461000616868e-07
"2099",0.302235378809726
"2100",0.145798887632279
"2101",0.0257252225815244
"2102",0
"2103",0.147240214773152
"2104",0.123982233557698
"2105",0.0267285106768117
"2106",0
"2107",0.107055921940389
"2108",0.344132210499287
"2109",0
"2110",0
"2111",3.02240716898439e-08
"2112",0.0994455103401297
"2113",0.159419997012893
"2114",0.0170563030567921
"2115",0
"2116",1.88319667637771e-08
"2117",0.573286150496478
"2118",0
"2119",0.00880732045064592
"2120",0
"2121",0
"2122",7.4887399414969e-07
"2123",0
"2124",0
"2125",7.98779960953233e-07
"2126",0
"2127",0.000964497578442636
"2128",0.0205745375972484
"2129",0
"2130",0
"2131",4.25365668954569e-06
"2132",6.79166067418802e-06
"2133",0.136112557614274
"2134",0
"2135",2.0522472610196e-12
"2136",0
"2137",0.0229221974756655
"2138",3.13082892944294e-14
"2139",0.00129569931290607
"2140",0.336403397837137
"2141",0
"2142",0
"2143",0
"2144",1.56319401867222e-13
"2145",3.32343497722043e-07
"2146",1.50210954785734e-11
"2147",2.45918951868873e-10
"2148",2.91630544158039e-07
"2149",1.66533453693773e-15
"2150",7.82029274670748e-09
"2151",2.62394991290549e-08
"2152",2.31024440457972e-05
"2153",2.64723408716083e-06
"2154",0
"2155",1.34559030584569e-13
"2156",3.33066907387547e-16
"2157",1.1669554211835e-12
"2158",7.4495964952348e-14
"2159",0
"2160",0
"2161",0
"2162",0
"2163",0
"2164",0
"2165",0
"2166",1.3214884742041e-10
"2167",0
"2168",0
"2169",0
"2170",0
"2171",2.45289899503121e-10
"2172",1.13469971196878e-08
"2173",0.000631580828634903
"2174",5.55111512312578e-16
"2175",4.44089209850063e-16
"2176",4.35274947307995e-07
"2177",3.33933769525174e-09
"2178",0
"2179",1.04027897407377e-12
"2180",0
"2181",0
"2182",0.113942236414343
"2183",0
"2184",0
"2185",0
"2186",0.250652079913725
"2187",0.00165942164048172
"2188",5.28831461954482e-07
"2189",3.15164898734288e-07
"2190",0.00176395518393402
"2191",0
"2192",0
"2193",0.000755999188034706
"2194",0.751246091575236
"2195",0.386736962293303
"2196",0.176599131967452
"2197",0
"2198",0
"2199",2.63605989481164e-07
"2200",0.87524275287079
"2201",0
"2202",0
"2203",0.00218676304278098
"2204",0
"2205",0.869061751275027
"2206",0.481788222688627
"2207",0.929212719540132
"2208",0
"2209",0.0276976189425016
"2210",0.312202255018776
"2211",0.000456647716623459
"2212",0
"2213",0.0985874342361959
"2214",3.33066907387547e-16
"2215",0.00361281278772518
"2216",0
"2217",0
"2218",0.361089667015594
"2219",0
"2220",0.374424364713235
"2221",7.31989391322685e-09
"2222",0.000648223981235319
"2223",0.0802280416721436
"2224",0.122421948574717
"2225",0.154807248713187
"2226",0.036021118178985
"2227",0.00052638572234287
"2228",0.0014563252607116
"2229",0.00187919592573027
"2230",0.0285186337625665
"2231",0.0175433619222134
"2232",0.439556916274928
"2233",7.03270623347851e-06
"2234",8.17235168426578e-13
"2235",5.06657401477817e-07
"2236",3.87701270969654e-05
"2237",0.231707220122995
"2238",0.11525833633917
"2239",0.322233616292268
"2240",0.0178492158022673
"2241",0.0677177509164448
"2242",0
"2243",0.347924152130763
"2244",0.725225769355344
"2245",0.241537250713557
"2246",0
"2247",0
"2248",0.212520360348237
"2249",0.252149566699101
"2250",0.999487870230031
"2251",0.729937897058266
"2252",2.74232425656606e-09
"2253",0.000268911733279587
"2254",1.67555636032546e-10
"2255",0.116967923395581
"2256",0
"2257",5.60777724190054e-06
"2258",0.102991135587371
"2259",0.969150903006544
"2260",0.769868858230153
"2261",0.579563230680051
"2262",0
"2263",9.51901890644535e-11
"2264",0
"2265",0.00148927116537312
"2266",9.57803889289899e-06
"2267",1.77452626148877e-07
"2268",0.00654036320497986
"2269",2.40600872558616e-11
"2270",4.65955997552836e-06
"2271",0
"2272",0.855879707293997
"2273",0.150897329535501
"2274",0.0396733050735946
"2275",0.219959220718718
"2276",0.285354593869561
"2277",0.506529301551935
"2278",0.0946994193551175
"2279",0.00439490865334791
"2280",0.0450900038219583
"2281",5.55111512312578e-15
"2282",0.24222272670453
"2283",0.00526432964617496
"2284",0.0563683923802332
"2285",0.00894020526831341
"2286",0.000463508329262563
"2287",1.2322831146605e-06
"2288",4.75593565285592e-06
"2289",0.00493715621428037
"2290",0
"2291",0.00258575671074535
"2292",0.00527282206154389
"2293",0.0102538704792962
"2294",0
"2295",0.0773355400027133
"2296",0.025828323927504
"2297",0.0211467080820278
"2298",0.122679820682337
"2299",0.006217148264132
"2300",0.000710434008491689
"2301",1.34641269511349e-06
"2302",0.0387827346424533
"2303",0
"2304",0
"2305",1.61471058746088e-10
"2306",0.0235969011896264
"2307",0
"2308",0.0485975288571333
"2309",0.153399583215444
"2310",0.329636050852871
"2311",8.21787082827541e-13
"2312",1.8027968007317e-10
"2313",0.0752804738388304
"2314",0
"2315",0.000360787080359803
"2316",0
"2317",0.0259631277302294
"2318",0.244918915551959
"2319",1.83531924724534e-06
"2320",0.513107472247733
"2321",0.270613987642801
"2322",8.14695866324655e-10
"2323",0.186211058778172
"2324",0.012974373052922
"2325",0.157429886185516
"2326",0.000995460944198889
"2327",0.467418394471991
"2328",0
"2329",0.00011643169606923
"2330",0.0155497783346912
"2331",6.83849182453455e-05
"2332",0
"2333",0.00233362891446531
"2334",0.232705164945065
"2335",0
"2336",0.0549512633583311
"2337",0.0171561990061763
"2338",0.07036098198878
"2339",0.00461889407569871
"2340",0
"2341",0.00148814245980911
"2342",0.360540038074927
"2343",0.00833819774992939
"2344",0.0479634858691542
"2345",7.94197505615823e-06
"2346",0.0416972959154662
"2347",9.17343057071918e-09
"2348",9.89051063271518e-11
"2349",8.61533067109121e-14
"2350",0.0222529129536438
"2351",0.081210954456725
"2352",0.157122324158239
"2353",5.32990354268348e-05
"2354",0.49078985500429
"2355",0
"2356",0.137421829180616
"2357",0.040439279106174
"2358",4.30234486334946e-05
"2359",0.00693907430235108
"2360",0.000338782300059681
"2361",0.0260719918306271
"2362",0.141883842650594
"2363",0
"2364",8.63827302433062e-06
"2365",0.0238712225893494
"2366",0.0366620842605098
"2367",0
"2368",0
"2369",0.0130117724739853
"2370",5.8468324481975e-07
"2371",0.000112338612359597
"2372",0
"2373",3.29244702501619e-07
"2374",0.234162735324993
"2375",0.58195524536804
"2376",0.0811700098244517
"2377",0.00268849935109761
"2378",0.000472375242246414
"2379",0.0106613743174251
"2380",3.72971093359764e-05
"2381",0
"2382",0.000433889000219678
"2383",1.81521464526213e-13
"2384",0
"2385",9.97838295280218e-06
"2386",0.0598621800709915
"2387",0.00224737824785382
"2388",0
"2389",0
"2390",1.17177170300131e-07
"2391",0
"2392",0.00924297680831454
"2393",0
"2394",0
"2395",1.50799867318918e-05
"2396",3.51319682567741e-07
"2397",6.47380704599243e-10
"2398",0.512939324401029
"2399",1.3433365531057e-11
"2400",0
"2401",4.13456904002629e-06
"2402",4.16067180708524e-12
"2403",0.000719829937855021
"2404",0
"2405",7.19615594888534e-05
"2406",6.88552215244442e-10
"2407",5.18102893920513e-10
"2408",9.90987292226464e-11
"2409",0.00135323605393212
"2410",0.255417353355038
"2411",0
"2412",0.00681428314580301
"2413",0
"2414",0
"2415",0
"2416",0
"2417",0
"2418",0
"2419",0.00955316873587186
"2420",0.684807591019059
"2421",0
"2422",4.91250273793042e-09
"2423",0.0243971318453455
"2424",0.393037566642372
"2425",0
"2426",0
"2427",1.02704287519018e-07
"2428",0.741249619748897
"2429",0.256787016255527
"2430",0
"2431",3.038436823255e-07
"2432",0
"2433",0
"2434",0.00413664977298611
"2435",0.0507737754909413
"2436",7.63414997884126e-10
"2437",0
"2438",0.000212078477389022
"2439",0
"2440",0
"2441",5.32907051820075e-15
"2442",0
"2443",0
"2444",0
"2445",0
"2446",0
"2447",1.35914612897636e-11
"2448",0
"2449",0.0450172961479653
"2450",0
"2451",0
"2452",0
"2453",0
"2454",0
"2455",0.0391405669830578
"2456",0
"2457",0.000363760075513309
"2458",0
"2459",0
"2460",0
"2461",0.0402709672815718
"2462",0.445471615254148
"2463",0.19288309510508
"2464",1.13560978509675e-06
"2465",0.0520271640054056
"2466",0
"2467",0
"2468",0.00109777528202415
"2469",0
"2470",0.195065949123338
"2471",0.947210367082588
"2472",0.37191686644503
"2473",0.65715190872608
"2474",0.128304827063347
"2475",0
"2476",0
"2477",2.48689957516035e-14
"2478",0
"2479",0
"2480",0
"2481",0
"2482",0.0347544604475321
"2483",0.0198218025412067
"2484",0.000479156013240556
"2485",0.0184413489789154
"2486",0.00111426042980545
"2487",0
"2488",0.167709005545601
"2489",0.470317931162526
"2490",0.0227788089748587
"2491",0.0800807052332169
"2492",0
"2493",0
"2494",0
"2495",0.689817684311551
"2496",0.1447435717271
"2497",0.632401386962753
"2498",0.0130844720217301
"2499",0.685555607059904
"2500",0.793349505889882
"2501",0
"2502",0
"2503",0
"2504",0
"2505",0.000611016507515827
"2506",0
"2507",2.75878929389961e-06
"2508",0.00806447164590574
"2509",0.56148252512806
"2510",0.204217916614476
"2511",0.223006770408771
"2512",0.206957131920451
"2513",0.0151952857773124
"2514",0
"2515",0
"2516",0
"2517",5.29261912107781e-06
"2518",0.627328300797543
"2519",0.101090841456607
"2520",2.22044604925031e-16
"2521",2.72737388229416e-12
"2522",0.0148010755789147
"2523",0
"2524",1.56321573241414e-07
"2525",0
"2526",0.0535104085057198
"2527",0
"2528",0.00546461011660393
"2529",0.0341017412300852
"2530",0.00147945135731642
"2531",0.0214772380997983
"2532",0.333885988825209
"2533",1.69864122767649e-14
"2534",0
"2535",0
"2536",0
"2537",0
"2538",0
"2539",0
"2540",0
"2541",0.628531540188052
"2542",1.59051660730825e-11
"2543",0
"2544",0
"2545",0
"2546",9.16503961612136e-09
"2547",0
"2548",9.86535975133762e-09
"2549",0.619831007893448
"2550",0.135709386554877
"2551",0.423741514675596
"2552",0.502649667741872
"2553",0.69674156020638
"2554",0.150571685122783
"2555",0.808278685588206
"2556",0
"2557",0.000282244309424695
"2558",0.957926987520466
"2559",0.0521795036878723
"2560",3.76058641453625e-05
"2561",6.27690271981507e-08
"2562",0.00669734842155367
"2563",0
"2564",0
"2565",3.45110983516195e-05
"2566",0.3649675233318
"2567",3.33066907387547e-16
"2568",0.0121165179447595
"2569",0.271023540253827
"2570",0.0893123592269676
"2571",0
"2572",0.331359087504141
"2573",0.0102516846210727
"2574",0.954980563640977
"2575",0
"2576",0
"2577",1.14352971536391e-14
"2578",1.26573361868276e-05
"2579",0.356551744317647
"2580",0.284423995418412
"2581",0
"2582",0
"2583",0.519540799042349
"2584",0.455649580165335
"2585",0.0151043073800448
"2586",0
"2587",0.264839978939278
"2588",1.59225077567271e-10
"2589",0.936902581925057
"2590",0.277122834259338
"2591",0.787482484238277
"2592",0.000682265689086248
"2593",0.0761596971210131
"2594",0
"2595",0
"2596",0
"2597",0.00485471418644889
"2598",0
"2599",0
"2600",0
"2601",0
"2602",0
"2603",0
"2604",0
"2605",0
"2606",0
"2607",0.242548412644533
"2608",0.437466631827149
"2609",0.00138297567388113
"2610",0.00639898289187013
"2611",0.000132709782967311
"2612",3.85715981399137e-05
"2613",0
"2614",0
"2615",5.1547655033346e-13
"2616",0
"2617",0
"2618",0.000167990626881109
"2619",2.97539770599542e-14
"2620",0
"2621",0.000113223680665242
"2622",0.955817721227096
"2623",0.893522606568365
"2624",0.00253597731076072
"2625",0.00196812131473312
"2626",0.0104645600316111
"2627",1.27793486526251e-06
"2628",4.10083078605794e-12
"2629",0
"2630",0
"2631",2.73851326182406e-06
"2632",0.0461181775364444
"2633",9.39669766288898e-05
"2634",5.76760861292769e-11
"2635",0
"2636",0
"2637",0
"2638",3.0659026217239e-05
"2639",1.16238598413254e-07
"2640",0
"2641",0
"2642",0
"2643",0
"2644",0
"2645",0
"2646",0
"2647",0
"2648",0
"2649",0
"2650",0
"2651",0
"2652",0
"2653",0
"2654",0
"2655",3.15810904649716e-07
"2656",0.110785674842862
"2657",0
"2658",0.0140172888038514
"2659",0
"2660",1.77871553905806e-05
"2661",0
"2662",0
"2663",0
"2664",0
"2665",3.76078170938321e-07
"2666",1.77635683940025e-15
"2667",0.45333844031472
"2668",0.0219945303325489
"2669",6.05844774348441e-09
"2670",1.28952593259068e-06
"2671",0.308383115837614
"2672",1.01943438941543e-05
"2673",0.010226509480157
"2674",0.000697263935745651
"2675",0
"2676",0
"2677",0
"2678",3.17523785042795e-14
"2679",3.44871464719176e-10
"2680",0
"2681",1.24712183258158e-06
"2682",3.77475828372553e-15
"2683",0
"2684",0
"2685",1.40967237882705e-11
"2686",0.00150916853521033
"2687",0
"2688",0
"2689",0
"2690",6.43082694873343e-08
"2691",1.94411153842111e-12
"2692",0
"2693",0
"2694",2.88605544617182e-05
"2695",0
"2696",6.89546473364722e-07
"2697",0
"2698",0
"2699",0
"2700",4.44089209850063e-16
"2701",0.101498234471242
"2702",1.1034831715051e-07
"2703",0
"2704",2.22044604925031e-16
"2705",1.49603995858172e-10
"2706",0
"2707",0
"2708",0
"2709",0
"2710",0.00532487709576568
"2711",0.000214727462510278
"2712",5.87752069236558e-13
"2713",0
"2714",0
"2715",0
"2716",0.000570482453231325
"2717",0.00787808301809845
"2718",0
"2719",0
"2720",0
"2721",1.59594610638081e-07
"2722",0
"2723",0
"2724",0.000785865675939745
"2725",0
"2726",0.577039977023826
"2727",0
"2728",0
"2729",0.00169690449195425
"2730",0
"2731",0.0336408075417686
"2732",1.66267000167863e-12
"2733",0
"2734",2.55835713591779e-06
"2735",6.91611212744192e-11
"2736",2.42975230380083e-07
"2737",0
"2738",7.3200658072814e-06
"2739",0.000308456398734558
"2740",0
"2741",0
"2742",0
"2743",1.13533709797942e-05
"2744",0
"2745",0.000175107291329635
"2746",0
"2747",0.000117050011060993
"2748",2.43138842392909e-14
"2749",0.924886112946592
"2750",0
"2751",0.000391962480315922
"2752",0.0286038376858484
"2753",0.0274853611535574
"2754",0
"2755",0
"2756",0
"2757",0.00385538070665314
"2758",0
"2759",0.447762294848952
"2760",6.96757636142742e-07
"2761",0
"2762",4.04516222131113e-05
"2763",0
"2764",0
"2765",0.0294333185566219
"2766",0
"2767",0
"2768",0.002873467594812
"2769",1.55183466077347e-09
"2770",0.0117198240012454
"2771",1.45402789808458e-09
"2772",0
"2773",1.11022302462516e-16
"2774",5.88418203051333e-15
"2775",0.0105609441668219
"2776",0.154293640245665
"2777",0.425563386722327
"2778",0.00194343945330699
"2779",0
"2780",0
"2781",0.00396959164196486
"2782",0.779565122922596
"2783",0
"2784",0
"2785",0
"2786",0
"2787",0.000320915652557985
"2788",0.00658953153269792
"2789",0.184803010579398
"2790",0
"2791",0.0685191470864909
"2792",0
"2793",0
"2794",0.00861432115846328
"2795",0.243916083396499
"2796",0.764615489433262
"2797",0.527461385281349
"2798",0
"2799",0
"2800",0
"2801",0
"2802",0.00327996741381043
"2803",0.789809498873181
"2804",0
"2805",0.823150569929384
"2806",0.999959072520479
"2807",2.1094237467878e-15
"2808",0.668310665818649
"2809",0.000101339029744074
"2810",3.23269970903262e-07
"2811",0.143296758883095
"2812",0.91829143042803
"2813",0
"2814",0
"2815",0
"2816",0
"2817",0
"2818",0.0622568795743675
"2819",0.078840350941504
"2820",0.596360082325095
"2821",0
"2822",2.47725173707636e-11
"2823",7.37516304538666e-06
"2824",0.379763376537617
"2825",0
"2826",0
"2827",0.0485736062298776
"2828",0.0243690596483715
"2829",0
"2830",0
"2831",0
"2832",0
"2833",0
