"","x"
"1",7.81363340696117e-09
"2",0
"3",8.43414319384728e-07
"4",0.000200745590311802
"5",0.00660085393767529
"6",0.00232178259341653
"7",2.5763251778832e-05
"8",0.00128468517018587
"9",0.4567251943048
"10",0.0534504887918184
"11",1.42378331347004e-10
"12",0.0106724678177731
"13",0.651415063512034
"14",0
"15",0.0115620748782931
"16",2.47067530867451e-05
"17",8.09872444107462e-06
"18",0.00455937530918971
"19",0.000110589617817958
"20",0.000981970444897673
"21",0.579944791943621
"22",7.59614593448532e-13
"23",0.00172090857372698
"24",0.535034816181832
"25",0
"26",1.49324996812084e-13
"27",0.000873582984941446
"28",0.00399750134674159
"29",2.27696574039982e-07
"30",9.53628320754518e-09
"31",0
"32",0
"33",1.30925759171951e-05
"34",0.00534047147424765
"35",1.81648486221597e-05
"36",1.11022302462516e-16
"37",0
"38",0
"39",2.07285189013362e-10
"40",0
"41",0
"42",0
"43",8.43076810885801e-06
"44",0.281719652514329
"45",3.17733062082937e-10
"46",0
"47",3.48616407155333e-05
"48",0
"49",0.00140497472988721
"50",0
"51",0
"52",0.0225482666050145
"53",0
"54",0
"55",0
"56",0
"57",0
"58",0
"59",0
"60",4.12325729115537e-12
"61",0
"62",0
"63",4.10887990298647e-11
"64",0
"65",0.000893345025770986
"66",3.9962937445126e-05
"67",1.21555521204186e-09
"68",0
"69",0
"70",0
"71",0
"72",0.00403540605576636
"73",0
"74",0.00152265700179244
"75",0
"76",0.930022707812972
"77",0.000374497374672877
"78",0.40321738272853
"79",0.430370715018441
"80",0
"81",0
"82",0
"83",0
"84",0
"85",0.00995305750342357
"86",0.28722144731704
"87",0.588199092116209
"88",0
"89",0.132703079774305
"90",0.0777959876765077
"91",0.31776287630277
"92",0.23995775730067
"93",0
"94",0
"95",0.155192496220789
"96",0.0265252120563939
"97",0.196640170950458
"98",0
"99",0
"100",0.445452946923482
"101",0.266965481669872
"102",0.632769007141388
"103",0.126783649069295
"104",0
"105",0.491545838756144
"106",0
"107",0
"108",3.28640272662106e-07
"109",0
"110",0
"111",0
"112",0
"113",2.03885996974407e-09
"114",0
"115",0
"116",0
"117",0
"118",0.0066689520442329
"119",0.0235729484846141
"120",0.599052895442532
"121",0
"122",0
"123",0.95726680336068
"124",9.19613347329928e-05
"125",0.0259295286589818
"126",1.21582424128519e-08
"127",0.989760200626061
"128",0.537668741134348
"129",0.85954386936264
"130",0.00816535485725978
"131",0.0983105703140582
"132",3.400169035217e-12
"133",0.375737029307389
"134",0
"135",0
"136",0
"137",0.639127942662893
"138",0.000353616151001379
"139",0.00219528269610858
"140",0.80912100831665
"141",2.97578107710805e-07
"142",0.54721861540439
"143",7.5100110130677e-08
"144",0.284181145776759
"145",0.912946963361426
"146",0.0391493262377874
"147",0
"148",0.076800996580571
"149",0.0629277024453663
"150",0
"151",0.00598999381763943
"152",0.00357571938833656
"153",0.717996502943525
"154",0.594313744873164
"155",0.0453831773968248
"156",0.0865068379680457
"157",0.415026522082148
"158",0
"159",0.671139305526237
"160",0
"161",0.000512078654905102
"162",0.054803387798641
"163",0.166254887324525
"164",0.449607363569637
"165",0
"166",0.00441976210558759
"167",0.35913555061063
"168",0.153866048586946
"169",2.9591138969165e-06
"170",0.848316199671117
"171",0.791598486207401
"172",0.0307782453669838
"173",0
"174",0
"175",0
"176",0
"177",1.31273658610098e-10
"178",1.50735864901108e-08
"179",0
"180",3.14516427911693e-05
"181",0.000285179885006093
"182",2.61319239469593e-07
"183",2.47066699787801e-06
"184",0.00159595501514853
"185",0.00573620643507233
"186",0
"187",8.77076189453874e-15
"188",1.83266335440635e-08
"189",0
"190",9.59293460223165e-08
"191",0
"192",0.347556324438481
"193",0
"194",0.0278713963287442
"195",0.000510048644511873
"196",0.00931366225639885
"197",4.69958987178165e-05
"198",0.118762876637596
"199",0
"200",0.0152973925363221
"201",6.30345840524349e-07
"202",0
"203",0.000160521093147681
"204",0.00195394168768426
"205",0.533256198501707
"206",0
"207",0
"208",0
"209",0
"210",0
"211",0
"212",0
"213",0
"214",0
"215",0
"216",0
"217",2.53955989570898e-09
"218",0
"219",0
"220",0
"221",3.56188673000801e-08
"222",6.20109297244653e-09
"223",0.0214020034939466
"224",1.11022302462516e-16
"225",0
"226",9.4444110921299e-05
"227",5.97808951982026e-05
"228",1.30140473952878e-08
"229",4.37305747169603e-12
"230",0.0701861372282573
"231",1.95244041639731e-05
"232",3.42137973396994e-07
"233",0
"234",0
"235",0.0164705423705827
"236",0.0207986821022714
"237",5.21162051292379e-08
"238",0.082032048553728
"239",9.51188203779374e-06
"240",1.38881584010875e-09
"241",0.0132894937402028
"242",2.09499084746767e-12
"243",0.127544276695927
"244",2.66453525910038e-15
"245",0
"246",2.85007062394982e-08
"247",0.000685264231904403
"248",0.00415431519660003
"249",2.52353693497298e-13
"250",1.6036876759884e-06
"251",0
"252",7.91268044242344e-06
"253",0
"254",0.000208813479278702
"255",4.80726569662693e-14
"256",0
"257",0
"258",0
"259",0
"260",0
"261",0
"262",0
"263",0
"264",0
"265",1.28396740795012e-07
"266",0.00520044920593488
"267",0
"268",2.60801675652234e-05
"269",0
"270",0
"271",0
"272",6.12112281972443e-08
"273",0.00182560622164363
"274",0
"275",5.16117054649712e-08
"276",0
"277",0
"278",0
"279",0.45678552365769
"280",0.235939875690307
"281",1.38354396828078e-08
"282",0
"283",0
"284",0.000385377304070178
"285",0
"286",0
"287",0.00577216151617543
"288",0
"289",0
"290",7.10554335725533e-06
"291",0
"292",0
"293",0
"294",0
"295",0
"296",0
"297",0
"298",0
"299",0.0218268130082795
"300",0
"301",5.57364293342077e-05
"302",0.62951965047189
"303",0
"304",0.358725903052868
"305",0.750978439100319
"306",0
"307",0
"308",0
"309",0
"310",0.222640883679588
"311",0
"312",0
"313",0.00179881015830052
"314",0.183315813534228
"315",4.64015381673732e-10
"316",0
"317",9.24865959472942e-06
"318",1.83270402779323e-05
"319",0
"320",0
"321",0
"322",0
"323",0
"324",0
"325",0
"326",0
"327",2.04574613626995e-06
"328",0
"329",0.0103259422945897
"330",0
"331",0
"332",0
"333",0
"334",1.98677842906392e-05
"335",7.71011698930124e-10
"336",0
"337",8.32667268468867e-15
"338",0.449360259216782
"339",0
"340",0
"341",0
"342",0
"343",0.0261230857369575
"344",0.137855499033497
"345",0.275215017746446
"346",0
"347",0
"348",0
"349",0.382932877777773
"350",0
"351",0.00121517214251288
"352",0.000131771159000427
"353",0
"354",0
"355",0
"356",0
"357",1.93178806284777e-14
"358",0
"359",0
"360",9.1926466438963e-14
"361",4.9960036108132e-13
"362",0
"363",3.31343695370023e-07
"364",3.15512518089811e-06
"365",0
"366",0
"367",0
"368",0
"369",3.44169137633799e-15
"370",0
"371",1.80966353013901e-14
"372",0
"373",1.94349204155619e-05
"374",0
"375",4.90676077546937e-08
"376",0
"377",0
"378",0
"379",0
"380",0.0175184024971842
"381",0
"382",0
"383",0
"384",0
"385",1.20048823104568e-07
"386",0
"387",0
"388",0.0380957145351516
"389",0
"390",2.09119388472345e-10
"391",0
"392",0
"393",0
"394",0
"395",1.99652221128943e-05
"396",0.00274208289423894
"397",0
"398",0
"399",0
"400",1.11022302462516e-16
"401",1.934210453991e-05
"402",0
"403",0.0271306952561531
"404",5.03805276453884e-05
"405",1.17665823196056e-07
"406",0
"407",1.11022302462516e-16
"408",0.787822670466748
"409",0
"410",3.59590135445842e-12
"411",0.0208928680256933
"412",0
"413",0
"414",0
"415",0.00911520595033488
"416",0
"417",0
"418",0.186397367768007
"419",0.0186796409890017
"420",0
"421",0.676895890241872
"422",0.486512288767601
"423",0.126535966788331
"424",0.138011650907806
"425",0
"426",0.907033609067563
"427",0.0181428622236467
"428",0
"429",0.65312816437756
"430",0
"431",0.0888774881976571
"432",0.474171069925488
"433",0.00137694447181236
"434",0.0278377391089499
"435",0
"436",0
"437",0
"438",0
"439",0.809041012547975
"440",0
"441",0
"442",0
"443",0
"444",2.89279711296331e-12
"445",0
"446",0
"447",0
"448",0
"449",0
"450",0
"451",0
"452",0.208282032769565
"453",0.752974038166918
"454",0.0134573961383549
"455",0.00218997931485243
"456",0.0227672478239465
"457",0
"458",0.20804128192627
"459",0.0776890570370484
"460",0.989372157398796
"461",0
"462",0.000491801904064837
"463",0.33715107992711
"464",0.16925402455444
"465",0.538993377326064
"466",0.780161221759985
"467",0.0313658564772554
"468",0.412751380487252
"469",0.00461590200096862
"470",0
"471",0.559281612226419
"472",0.651987519057133
"473",0.00622398471010954
"474",0.218382632390541
"475",0
"476",0.212303236763899
"477",0.00704769306129505
"478",0.00216348985717307
"479",0
"480",0.393107216153287
"481",0.764548487457323
"482",0.00863465647728079
"483",0
"484",0.192917983932706
"485",0.427977123863454
"486",2.12546615863118e-08
"487",0
"488",0.0079686527251811
"489",0.399505100396459
"490",0
"491",0.44274865612426
"492",0
"493",0
"494",3.82260889608688e-12
"495",0
"496",0.0478182013342412
"497",0.19450672181788
"498",0.121156725434728
"499",0.812561580426913
"500",1.11022302462516e-16
"501",0.522637263981961
"502",0.376414240989234
"503",0.0770882393812395
"504",0.110302522207838
"505",0
"506",0
"507",0
"508",0
"509",0
"510",0
"511",0
"512",0.0656592670601283
"513",0.245414581421199
"514",0.25689926178303
"515",0.673308611958644
"516",2.79904882105608e-06
"517",5.13094700194117e-06
"518",0.44492478809567
"519",0
"520",0
"521",0
"522",0
"523",0.00136605366905929
"524",0.0817516513421952
"525",0.286840698406642
"526",1.38004195227026e-06
"527",4.20870249234762e-05
"528",0
"529",0
"530",0
"531",0
"532",0
"533",0
"534",0
"535",0
"536",0
"537",0
"538",0
"539",0.00137182555979121
"540",0.018710820187812
"541",0.0773278705533506
"542",0.571035037168691
"543",0.951296345637313
"544",0.72057307008941
"545",0.561489549169563
"546",0
"547",0.0174343202172282
"548",0.409394781880578
"549",0.0873420006180127
"550",0
"551",0
"552",0
"553",0
"554",5.47061820288519e-08
"555",4.5153669303577e-05
"556",0
"557",0
"558",0
"559",0
"560",0
"561",0
"562",0
"563",0
"564",3.27718695947166e-06
"565",0
"566",0
"567",0
"568",5.88691856373558e-07
"569",0.140496120882632
"570",5.25581800303598e-11
"571",0
"572",0
"573",4.8615556025311e-11
"574",0.406799720359867
"575",0
"576",0
"577",9.44515034295712e-07
"578",0.000785159336341046
"579",0
"580",0
"581",0.210481108580282
"582",1.76728265355308e-09
"583",0
"584",0.329836904422484
"585",0
"586",0
"587",0
"588",0
"589",5.51370395729389e-06
"590",0
"591",0
"592",0.0972759742094859
"593",0.22197532690626
"594",0.0390345209036772
"595",0.0942003896813308
"596",0.00138401463211735
"597",0.02007843725655
"598",0
"599",0
"600",0
"601",0
"602",0
"603",0
"604",4.3142156513909e-11
"605",0.0512044105130285
"606",0.0517702241928022
"607",0.00263472691663458
"608",0
"609",0
"610",0
"611",0
"612",0
"613",0.0360656143002768
"614",0.000635364129814908
"615",0
"616",0
"617",0
"618",0
"619",0.000257118254617494
"620",1.39546152411185e-10
"621",2.43546280631612e-06
"622",0
"623",0
"624",7.105427357601e-15
"625",0
"626",0
"627",0
"628",0
"629",4.67424321470844e-10
"630",2.47583477959168e-05
"631",1.74310276990219e-07
"632",0
"633",0
"634",2.05916822482166e-08
"635",1.42651997179222e-05
"636",0.000325875392759634
"637",0
"638",0.159579954694157
"639",0.00608501812208262
"640",0.000153236318704675
"641",0
"642",0.356761957253328
"643",4.35207425653061e-14
"644",0
"645",0
"646",0
"647",0
"648",0
"649",0
"650",9.47023339372688e-05
"651",0
"652",0
"653",0
"654",0.685190891159029
"655",9.15159437120394e-09
"656",0.000248437517778921
"657",6.92779167366098e-14
"658",0.0179238893237278
"659",0
"660",0
"661",2.67972311007725e-11
"662",0.00736084829434036
"663",5.55002544936345e-05
"664",6.93289869957425e-12
"665",0
"666",0
"667",0
"668",2.68270961001349e-11
"669",0
"670",2.89210863395617e-05
"671",2.22044604925031e-16
"672",0
"673",0.0567814647062618
"674",0.0040098144366193
"675",0
"676",0
"677",5.15573587600571e-07
"678",0
"679",2.09754928204298e-07
"680",0
"681",1.20181642415673e-12
"682",8.94617713242951e-12
"683",0
"684",0
"685",0
"686",1.03478337010188e-10
"687",6.18260584006602e-06
"688",0
"689",0
"690",0
"691",0
"692",2.98378701324431e-06
"693",4.18496189158457e-06
"694",0
"695",0
"696",2.25171659096191e-10
"697",1.22537091584718e-10
"698",1.16573417585641e-13
"699",0
"700",1.57929225252929e-12
"701",0.00195550109898379
"702",1.71973546514437e-13
"703",0
"704",0
"705",1.11022302462516e-16
"706",4.06674693920195e-13
"707",0
"708",1.93010159269535e-05
"709",1.08310131885503e-06
"710",2.8208546609676e-12
"711",0
"712",2.16324291812953e-10
"713",1.41737832581867e-09
"714",0.301730192636582
"715",0
"716",0
"717",2.94014834700818e-09
"718",1.77635683940025e-15
"719",4.08386929382498e-05
"720",1.19060881321742e-05
"721",0
"722",0
"723",0
"724",1.11022302462516e-16
"725",0
"726",0.00467457108660563
"727",0
"728",0
"729",0
"730",0.0932341250559647
"731",0
"732",0
"733",0
"734",4.22302928404505e-07
"735",7.53160161705013e-05
"736",3.63764574018433e-12
"737",0.000360896159959712
"738",1.30853566882028e-06
"739",1.53153807551654e-05
"740",4.30577795640374e-12
"741",0
"742",4.4851733438378e-10
"743",0.234119478984754
"744",0
"745",0
"746",0
"747",0
"748",1.21628596083667e-10
"749",0
"750",1.31429311878151e-11
"751",0
"752",0.0122670195605602
"753",0.000134436810054983
"754",0
"755",0.643302495759124
"756",6.99447982182022e-05
"757",0
"758",5.75783198897284e-10
"759",0
"760",0
"761",6.05537842091053e-12
"762",0
"763",0
"764",0
"765",0.555310442538225
"766",0
"767",0.00837130270891562
"768",0
"769",0.00929755597759707
"770",0.0713505870577535
"771",0.00990801890403148
"772",0
"773",0.691386096101896
"774",0.227951043928723
"775",3.37041893971879e-06
"776",0
"777",0
"778",0.00016874920481813
"779",0
"780",0
"781",5.55111512312578e-16
"782",0
"783",9.10942340670573e-07
"784",0
"785",8.9269702741035e-12
"786",0.0961900499165691
"787",1.11022302462516e-16
"788",0
"789",0.000898737248504311
"790",0.733384851853405
"791",0.656719636513102
"792",0.347338585232501
"793",2.59564719717886e-08
"794",7.48290318597356e-12
"795",0
"796",0
"797",3.51461715286661e-08
"798",0.123636973610647
"799",0.00291615763154851
"800",0
"801",0.000397069802034133
"802",0
"803",0
"804",0
"805",0
"806",0.686323640961608
"807",4.51247169208635e-06
"808",0
"809",3.33066907387547e-16
"810",0
"811",0.233764670394169
"812",0.398296866152628
"813",0.000746879200697492
"814",1.73100422884431e-11
"815",0.00846427740837752
"816",0.000209060744831846
"817",0.0032411172847413
"818",0.000976860436961102
"819",0.000669292692480061
"820",0.256856301699094
"821",0.635271525158755
"822",0.00691811165492329
"823",2.59774424193893e-11
"824",0.412182186622061
"825",2.78541190112946e-09
"826",0
"827",0.482528409016614
"828",6.353140236115e-12
"829",0.68586470683935
"830",0.0310347919080707
"831",2.46569431539001e-12
"832",0.000259856695700833
"833",0.25083861459135
"834",0.00371924111597399
"835",0.127750154384466
"836",5.3164199537159e-06
"837",0.0415354958158123
"838",0.278419033436145
"839",0.0028674600711478
"840",0.000627602778049963
"841",0.00222946946584834
"842",0.0124320345698081
"843",0
"844",0.133574350056492
"845",0.0530863522959732
"846",5.82523988967854e-06
"847",0.342398885633945
"848",0.120742767560068
"849",0.118378186029006
"850",0
"851",0
"852",1.25663701666667e-10
"853",0.52401954454698
"854",3.26405569239796e-14
"855",0
"856",0
"857",0.00200913584666584
"858",4.92934054840966e-06
"859",0.589729319679783
"860",0.117206827122482
"861",0.0287709734085094
"862",3.9320338133253e-06
"863",0.00269519087364611
"864",2.26729697150319e-06
"865",5.68218805341303e-11
"866",0
"867",0.000864711843943544
"868",6.3901739011385e-08
"869",0
"870",2.67048605451237e-11
"871",1.35515209948034e-05
"872",0.0419386249290157
"873",0.0944647999311874
"874",0
"875",4.92949882601179e-05
"876",1.27510541181319e-06
"877",0.0593538074270462
"878",0.00278262305769605
"879",0.0700139691349764
"880",0.0986772690932574
"881",0.0193117171454724
"882",1.34572408772016e-09
"883",0.000171529585992314
"884",0.0476519840873681
"885",2.7056445972562e-09
"886",3.3272664623496e-08
"887",1.70302675406298e-07
"888",0.050071144528038
"889",0
"890",3.93196586401245e-12
"891",7.57325657851915e-07
"892",0.000186493124099352
"893",8.09718958549865e-12
"894",1.08230978734802e-07
"895",0.0155394541598303
"896",0.00514910779220601
"897",4.97771823759763e-11
"898",1.11022302462516e-15
"899",0.0328312668104502
"900",0
"901",0.242381229531671
"902",7.264260643014e-07
"903",0.193770813056523
"904",0.318531484526037
"905",0.0733436718663785
"906",0.132416190154963
"907",6.43190045668263e-07
"908",0.294200217407833
"909",0.0243491612567431
"910",0
"911",0
"912",2.81049990259463e-05
"913",0.717896022154963
"914",0
"915",8.39328606616618e-14
"916",0
"917",6.64725283656686e-05
"918",0.564975797416246
"919",0
"920",0
"921",0
"922",1.38254629966639e-10
"923",0.00231780231865897
"924",4.49307944236921e-05
"925",0
"926",0
"927",0.126983282650492
"928",0
"929",0
"930",0
"931",0
"932",0
"933",1.12565401444442e-10
"934",0
"935",5.17808018685173e-13
"936",0
"937",0.0286675655456096
"938",0.0041650200383605
"939",0
"940",0
"941",0
"942",0.360545767054471
"943",0
"944",0
"945",0
"946",2.65343302885412e-13
"947",6.44899398517529e-05
"948",0
"949",0
"950",0.125199056505298
"951",0.0342239552124145
"952",0.0326098382178927
"953",1.01077228586988e-07
"954",1.0154566076892e-10
"955",0
"956",0
"957",0.0158962057232361
"958",0
"959",0
"960",0
"961",0.000260538475877925
"962",0
"963",0.118476208910256
"964",6.66133814775094e-16
"965",8.68563416889234e-06
"966",0
"967",0.0172286393591573
"968",5.79063671457547e-08
"969",0
"970",0
"971",0
"972",2.22044604925031e-15
"973",0.121974247091417
"974",0
"975",3.45894040054695e-06
"976",0.489641414460255
"977",0.00399355272408641
"978",0.0270210344356644
"979",0
"980",0.0151766549026228
"981",0.000478708628649516
"982",0
"983",0
"984",0
"985",0
"986",0
"987",0
"988",0
"989",0
"990",1.37652828903212e-05
"991",0
"992",0
"993",1.11022302462516e-16
"994",5.47637391181688e-05
"995",0
"996",0
"997",0
"998",0
"999",7.00456938007576e-08
"1000",0
"1001",3.9515478931218e-06
"1002",0
"1003",0
"1004",0
"1005",0
"1006",0.0487522793975488
"1007",3.55788731809525e-11
"1008",0
"1009",0
"1010",4.63294590691277e-07
"1011",0
"1012",0
"1013",0
"1014",0
"1015",0
"1016",0
"1017",5.32907051820075e-15
"1018",0
"1019",0
"1020",0
"1021",0
"1022",0
"1023",0
"1024",2.22044604925031e-16
"1025",0
"1026",4.3614556410887e-11
"1027",0
"1028",0
"1029",0
"1030",0
"1031",1.66533453693773e-15
"1032",0
"1033",2.55351295663786e-15
"1034",0.00154396616655872
"1035",0
"1036",0
"1037",6.17032072103285e-08
"1038",0
"1039",0
"1040",0
"1041",0
"1042",0.00209772228479166
"1043",0.000340801997395168
"1044",0
"1045",2.69948698061739e-07
"1046",0
"1047",0
"1048",0
"1049",0
"1050",0
"1051",0
"1052",0
"1053",0
"1054",0
"1055",0.595401914591305
"1056",2.42934825966934e-06
"1057",0
"1058",0.00226735606195549
"1059",2.79426243248171e-05
"1060",0
"1061",0
"1062",0
"1063",3.06237257774455e-11
"1064",0
"1065",2.64629833646168e-06
"1066",2.64799293603346e-12
"1067",0
"1068",0
"1069",0.000176936189262289
"1070",0.0484251780862947
"1071",0
"1072",0
"1073",0
"1074",1.33526523171668e-12
"1075",0.43715981665252
"1076",0
"1077",0
"1078",0
"1079",0
"1080",0
"1081",0
"1082",0
"1083",0
"1084",0
"1085",0
"1086",0.00524041500880656
"1087",0
"1088",0
"1089",0.114179820439994
"1090",0.0292873110265902
"1091",0
"1092",0
"1093",1.79116207441599e-05
"1094",0.00174620838547124
"1095",0.000112399272602093
"1096",0
"1097",4.01743939805188e-05
"1098",0
"1099",0
"1100",9.45798994678171e-13
"1101",6.36544015850671e-05
"1102",0
"1103",0
"1104",0
"1105",0
"1106",0
"1107",0
"1108",0.000908422021559052
"1109",0
"1110",0
"1111",0.00280682113284003
"1112",0
"1113",8.10805301842965e-06
"1114",0
"1115",0
"1116",0
"1117",0
"1118",0
"1119",0
"1120",1.11022302462516e-16
"1121",0
"1122",1.1483925326794e-05
"1123",0
"1124",0
"1125",0
"1126",0
"1127",0
"1128",0
"1129",0
"1130",0
"1131",0
"1132",1.48769885299771e-14
"1133",0
"1134",0
"1135",0
"1136",0
"1137",0
"1138",0
"1139",6.7763794575626e-09
"1140",0
"1141",0
"1142",0.123761858820332
"1143",0
"1144",0
"1145",0
"1146",0
"1147",0
"1148",7.5492345752437e-07
"1149",1.88529680755778e-09
"1150",0
"1151",0
"1152",0
"1153",1.01524594875446e-06
"1154",0.119083451225999
"1155",0.0513926741903266
"1156",0
"1157",0.0907124177757683
"1158",0.730889359161238
"1159",0.109501968690039
"1160",0
"1161",0.00863063524909602
"1162",0.0688116172911426
"1163",2.22044604925031e-16
"1164",0
"1165",0.979601230117539
"1166",0
"1167",1.52100554373646e-14
"1168",6.72507388665977e-08
"1169",0
"1170",0
"1171",0
"1172",9.46520639644177e-12
"1173",0.692609457445978
"1174",0
"1175",0.352300964929394
"1176",0.377814960482958
"1177",0.0537443777950318
"1178",0
"1179",0.0606267505910948
"1180",0.377230276696047
"1181",0.0500550981810651
"1182",0.0324946604436063
"1183",0.843646782819619
"1184",0.0321605292612468
"1185",0
"1186",1.08734947268374e-07
"1187",1.5301008238211e-09
"1188",0
"1189",0.0613902314232317
"1190",0
"1191",0
"1192",0
"1193",0
"1194",0
"1195",0.0834352030954532
"1196",0
"1197",0
"1198",0
"1199",5.92233861951286e-09
"1200",0
"1201",0
"1202",0
"1203",9.84496718814398e-07
"1204",0
"1205",0.187016671800937
"1206",0.000282972115786762
"1207",0.000416544112271877
"1208",0.11274653454432
"1209",0.144296519868939
"1210",0
"1211",0
"1212",0.163869978164074
"1213",0.95320272380679
"1214",0.51953550331018
"1215",0.147343660686892
"1216",0.310299831112329
"1217",3.21964677141295e-15
"1218",0
"1219",0
"1220",0
"1221",0.053797404988723
"1222",0
"1223",0
"1224",0
"1225",0
"1226",0
"1227",0
"1228",0
"1229",7.06529679206369e-07
"1230",0.271456592259988
"1231",0.0143154906745991
"1232",0.238394030722782
"1233",0.145785820401068
"1234",0.564930939376437
"1235",5.70321567749943e-13
"1236",0
"1237",0.283190336747395
"1238",1.36319026300402e-06
"1239",4.59361365953148e-05
"1240",0.801183080504376
"1241",0
"1242",0.000862627802107774
"1243",0
"1244",4.44089209850063e-16
"1245",0
"1246",0.0533447997689667
"1247",0
"1248",0.00291002464444501
"1249",0.416350284772553
"1250",0.30534681912447
"1251",1.14515408763394e-05
"1252",0.353429765398079
"1253",0
"1254",0
"1255",0
"1256",0
"1257",0
"1258",0.76264503535322
"1259",0
"1260",0
"1261",0
"1262",0
"1263",0
"1264",0.128327018256339
"1265",0
"1266",0
"1267",1.11512354905585e-10
"1268",0
"1269",0
"1270",0.000139729165174907
"1271",0.599192316073627
"1272",0
"1273",0.92161670528866
"1274",0.0323132216882216
"1275",4.44089209850063e-15
"1276",0.000273952840885494
"1277",0.298563100333541
"1278",0
"1279",0
"1280",0
"1281",0.0735865607241958
"1282",8.32052075017131e-08
"1283",0
"1284",0.140857952778165
"1285",0
"1286",2.94113622345549e-10
"1287",2.30152563673869e-11
"1288",0
"1289",0
"1290",0.186855086416634
"1291",0
"1292",2.90418359472078e-06
"1293",0
"1294",0
"1295",0
"1296",0.0748483289786771
"1297",6.77236045021345e-15
"1298",0
"1299",0
"1300",0
"1301",0
"1302",0
"1303",0.0633757858936487
"1304",0.0294223007290247
"1305",0.61582848586388
"1306",0.000282765990907263
"1307",8.16437126620606e-05
"1308",2.03709163014709e-05
"1309",0
"1310",0
"1311",0
"1312",3.07605811475931e-05
"1313",0
"1314",0
"1315",0
"1316",3.0075595358614e-07
"1317",0.00368435903973341
"1318",0.135114329463261
"1319",0.0168458876494512
"1320",0
"1321",0
"1322",2.5231008686788e-05
"1323",0.00234537058205952
"1324",0
"1325",0
"1326",0
"1327",0.00603371198319247
"1328",0
"1329",0.000204169308291258
"1330",9.80112879744865e-10
"1331",0.0346862434700579
"1332",3.58957197299503e-10
"1333",0.00375293942300781
"1334",0
"1335",0
"1336",1.11022302462516e-16
"1337",0
"1338",0
"1339",0
"1340",5.6320990460268e-07
"1341",3.26405569239796e-14
"1342",0
"1343",0
"1344",0
"1345",0
"1346",0
"1347",0
"1348",0
"1349",0
"1350",0
"1351",0
"1352",0
"1353",0.00489428838312145
"1354",3.39981550689927e-08
"1355",0
"1356",0
"1357",0
"1358",7.38031857849819e-12
"1359",2.45588098346516e-06
"1360",0
"1361",2.77555756156289e-15
"1362",1.7233436899744e-11
"1363",0
"1364",0
"1365",3.82027742773516e-13
"1366",0
"1367",0
"1368",0
"1369",0
"1370",1.53961420557014e-06
"1371",1.88001494283441e-06
"1372",0
"1373",1.66533453693773e-15
"1374",0.0813997919814694
"1375",0.000116938192993743
"1376",0.000142036777688204
"1377",0.00811830655415402
"1378",1.49658063719471e-13
"1379",3.64277421704973e-06
"1380",0.0103185457386794
"1381",0.00699707446183528
"1382",0.00116991233925812
"1383",0.00265820974224551
"1384",0
"1385",0
"1386",0
"1387",0
"1388",0
"1389",0
"1390",6.89448498292222e-14
"1391",0
"1392",0
"1393",0
"1394",0
"1395",0
"1396",2.22044604925031e-15
"1397",0
"1398",0
"1399",0
"1400",1.4432899320127e-15
"1401",1.12836184840148e-09
"1402",4.82528572653962e-10
"1403",0
"1404",3.46616180202375e-10
"1405",3.16387975440868e-06
"1406",9.83302994583823e-10
"1407",0
"1408",2.56913433860362e-08
"1409",7.70880862366319e-07
"1410",5.22276888403894e-09
"1411",0
"1412",3.80548925704716e-10
"1413",0
"1414",0
"1415",1.93178806284777e-14
"1416",9.22472445149536e-05
"1417",1.69975145070111e-13
"1418",1.24985094607233e-07
"1419",5.97855098760647e-13
"1420",0
"1421",2.73351075108508e-09
"1422",2.74742451011889e-11
"1423",0
"1424",3.94002608317123e-11
"1425",4.31477076290321e-12
"1426",9.14157638476354e-13
"1427",3.34623431186287e-08
"1428",0
"1429",0
"1430",0
"1431",1.19904086659517e-14
"1432",0
"1433",0
"1434",7.105427357601e-15
"1435",1.62762803235239e-10
"1436",3.39823724715416e-11
"1437",0
"1438",2.09388062444305e-13
"1439",3.43391981516561e-13
"1440",0
"1441",0
"1442",0
"1443",7.13207271019201e-13
"1444",0
"1445",4.91141571856701e-11
"1446",0
"1447",0
"1448",1.68698388591793e-12
"1449",0
"1450",1.11022302462516e-16
"1451",4.21884749357559e-14
"1452",0
"1453",1.91046797270999e-08
"1454",0
"1455",0
"1456",0
"1457",0
"1458",9.9970698386187e-11
"1459",3.06155101270633e-12
"1460",0
"1461",5.88418203051333e-15
"1462",0
"1463",0
"1464",0
"1465",7.7715611723761e-16
"1466",0.00157578315357443
"1467",0
"1468",0
"1469",0
"1470",0
"1471",0.000584616981701647
"1472",6.26893067646739e-05
"1473",0
"1474",0
"1475",5.60904051949418e-05
"1476",0
"1477",0
"1478",0
"1479",0
"1480",1.04548161657947e-05
"1481",0.0008309720517371
"1482",2.88657986402541e-15
"1483",0
"1484",0
"1485",0
"1486",0
"1487",0
"1488",0.00411145972543181
"1489",1.24774774956649e-07
"1490",2.11583125405701e-05
"1491",0.0254215019787157
"1492",2.3047879775806e-05
"1493",0.138599150825554
"1494",0.00173851793314683
"1495",0
"1496",0
"1497",5.53482666518779e-05
"1498",0.00287466966231575
"1499",0.0304452391514501
"1500",0
"1501",0
"1502",0
"1503",0
"1504",0
"1505",0
"1506",0
"1507",0
"1508",0
"1509",5.68889380048176e-12
"1510",2.10839279191077e-06
"1511",0.109820202746945
"1512",0.000517122752535348
"1513",2.41229683561883e-07
"1514",7.12665221981323e-05
"1515",2.77555756156289e-14
"1516",0
"1517",0
"1518",0.366787450427831
"1519",0.117201475381627
"1520",0
"1521",0.00349685615745365
"1522",1.95895146148928e-06
"1523",0.6720468996289
"1524",0.108914565426734
"1525",0
"1526",1.16707358825963e-05
"1527",0
"1528",0
"1529",0
"1530",0.0374906204424994
"1531",0.0161983082258425
"1532",0.0365885430830385
"1533",3.01737319030604e-06
"1534",0.100147115169553
"1535",0.0427113587814455
"1536",0.24575226795267
"1537",0.653276474166159
"1538",0.177572446133229
"1539",0.00704173597007052
"1540",0.748673403405868
"1541",0.594646069899246
"1542",4.44089209850063e-15
"1543",0.0724682108549811
"1544",0.0734216820739552
"1545",0.0712166699918552
"1546",0
"1547",0
"1548",0.0139011147681369
"1549",0.311758282838078
"1550",0.123258979406581
"1551",0.273616234745355
"1552",0.0336781175882515
"1553",0
"1554",6.83492719510959e-05
"1555",0.00328612299479925
"1556",0.00856555152565719
"1557",0.372376924324343
"1558",0.0555333420465861
"1559",0.000552765022025614
"1560",0
"1561",0.114871662645607
"1562",0.0694677298018754
"1563",0.00128546391449547
"1564",1.02015730196747e-07
"1565",0.0144487033861971
"1566",5.13589171191597e-13
"1567",0.0957833910055004
"1568",0
"1569",0
"1570",1.21636429484262e-06
"1571",0.214427003859783
"1572",3.97289055986683e-05
"1573",0.0131205363649286
"1574",0.436938142331896
"1575",0.474838823307442
"1576",0
"1577",0.000514086650842294
"1578",0
"1579",0
"1580",0.000573976715799174
"1581",0.00130918488787468
"1582",0
"1583",0
"1584",0.000785348792058493
"1585",1.66714744087582e-06
"1586",1.71973546514437e-13
"1587",0
"1588",0
"1589",0
"1590",0
"1591",0
"1592",6.45948475552771e-06
"1593",0
"1594",0
"1595",0
"1596",0
"1597",1.67105588527727e-05
"1598",2.37762654453633e-06
"1599",0
"1600",0
"1601",0
"1602",0
"1603",0
"1604",0
"1605",0
"1606",0.159938699626314
"1607",1.6098966604261e-10
"1608",1.83257398145287e-09
"1609",0
"1610",0
"1611",3.44169137633799e-13
"1612",0
"1613",0.838728126384756
"1614",0.766338972416001
"1615",0.180311812116104
"1616",0
"1617",0.0268234160171408
"1618",0
"1619",1.0129544980586e-09
"1620",0
"1621",0
"1622",0
"1623",0.615746890120635
"1624",0
"1625",0
"1626",2.51117932226208e-07
"1627",5.97546134795124e-09
"1628",0
"1629",0.000159192604502367
"1630",4.65186911213777e-09
"1631",0.00927867387265091
"1632",0.0427883340739488
"1633",0.274227539355507
"1634",0
"1635",8.88178419700125e-15
"1636",0.000488886238899644
"1637",0.1552259820762
"1638",0.00190345233322942
"1639",0
"1640",0.0411765511153753
"1641",1.77333259188117e-10
"1642",0
"1643",0
"1644",2.19979590099229e-11
"1645",1.94214017367189e-05
"1646",0
"1647",0
"1648",0
"1649",0
"1650",0
"1651",5.87494386816712e-06
"1652",5.18114992409391e-06
"1653",0
"1654",0
"1655",8.90881146631273e-10
"1656",1.44439275528985e-06
"1657",0
"1658",0.000448440459966837
"1659",8.19017609158257e-05
"1660",7.16204873185688e-12
"1661",0
"1662",0
"1663",1.47881706880071e-13
"1664",0
"1665",0
"1666",0.0337467142865974
"1667",0
"1668",5.40982814101199e-11
"1669",2.80869560942421e-09
"1670",0
"1671",0
"1672",0
"1673",0
"1674",0
"1675",0
"1676",0
"1677",0.0219518369602452
"1678",0.0974575901933585
"1679",0
"1680",1.28552394096371e-06
"1681",0.000278404436610868
"1682",0.184541064389337
"1683",0
"1684",1.63886752369002e-05
"1685",0
"1686",1.14429034236974e-05
"1687",1.06026298851702e-13
"1688",0.000506772376407394
"1689",0.0597725107520067
"1690",0.304588325524144
"1691",0.00185735479297222
"1692",0
"1693",2.04257054603474e-08
"1694",0.0763517337783958
"1695",0
"1696",0
"1697",0
"1698",1.20690277993774e-07
"1699",0.0738328614203628
"1700",2.38996396242364e-05
"1701",0.00119320749590879
"1702",1.21014309684142e-14
"1703",0
"1704",8.88178419700125e-16
"1705",0
"1706",9.18793834014942e-07
"1707",0
"1708",0.00704681310050481
"1709",0
"1710",0
"1711",1.04948862803544e-05
"1712",1.44166900639675e-11
"1713",0
"1714",0
"1715",2.99760216648792e-14
"1716",0
"1717",0
"1718",0.163911948695391
"1719",0.0745154257922759
"1720",0
"1721",0
"1722",0
"1723",0
"1724",3.35287353436797e-14
"1725",0
"1726",6.66133814775094e-16
"1727",0
"1728",0
"1729",1.45607884804999e-05
"1730",1.11022302462516e-16
"1731",1.71482195110428e-09
"1732",0
"1733",0
"1734",0
"1735",0
"1736",1.8771881671098e-05
"1737",2.39860144946036e-06
"1738",0.000249384613696613
"1739",0
"1740",0
"1741",0.0317438177279928
"1742",0.00770846890697907
"1743",0.00613459747074141
"1744",0
"1745",0
"1746",5.69544411632705e-14
"1747",7.34606899410739e-06
"1748",0.00369255467994523
"1749",0.00863368730785563
"1750",0
"1751",8.08801579642582e-05
"1752",1.74369731542612e-07
"1753",0
"1754",0
"1755",0
"1756",0
"1757",0
"1758",0
"1759",0
"1760",0
"1761",0
"1762",0
"1763",1.60046869090991e-08
"1764",0
"1765",0
"1766",0
"1767",1.05582209641852e-13
"1768",4.88088412908816e-07
"1769",0
"1770",0
"1771",0
"1772",0
"1773",0
"1774",0
"1775",0
"1776",0.0718928054566683
"1777",0
"1778",0.135243461772571
"1779",3.08642000845794e-13
"1780",0
"1781",0
"1782",0
"1783",0
"1784",0
"1785",0
"1786",5.44379497036118e-09
"1787",6.57346147514559e-08
"1788",0
"1789",0
"1790",0
"1791",0
"1792",0
"1793",1.12909046889875e-07
"1794",0
"1795",0
"1796",0
"1797",0.00316182506370732
"1798",0
"1799",0.0057176548756801
"1800",0
"1801",5.22560499871538e-07
"1802",1.03884287838696e-08
"1803",5.71653835379493e-13
"1804",0
"1805",0
"1806",0
"1807",1.11366471600149e-12
"1808",0
"1809",0
"1810",0
"1811",4.29038953601024e-05
"1812",0.000361080450287821
"1813",0
"1814",0
"1815",0
"1816",0
"1817",0
"1818",1.12465592394528e-13
"1819",0
"1820",0
"1821",0
"1822",0
"1823",0
"1824",2.99476554666001e-10
"1825",0
"1826",0
"1827",0
"1828",0
"1829",0
"1830",0
"1831",0
"1832",7.26731063294128e-06
"1833",0
"1834",0
"1835",0
"1836",3.21331850017259e-12
"1837",9.52579570778767e-10
"1838",0
"1839",0
"1840",0
"1841",1.33070860330875e-07
"1842",0
"1843",0
"1844",0
"1845",0
"1846",0
"1847",0
"1848",0
"1849",0
"1850",1.7091387461976e-06
"1851",4.9737991503207e-14
"1852",0
"1853",5.32907051820075e-15
"1854",0
"1855",2.47100871225703e-05
"1856",0
"1857",0
"1858",1.47659662275146e-14
"1859",0
"1860",0
"1861",0.00326989082739249
"1862",0
"1863",0
"1864",0
"1865",5.77315972805081e-15
"1866",0
"1867",0
"1868",1.65111920436001e-06
"1869",0
"1870",0
"1871",0
"1872",0
"1873",0
"1874",0
"1875",0
"1876",4.13023887313457e-08
"1877",0
"1878",0
"1879",9.28710308656377e-09
"1880",0
"1881",0
"1882",0.00311055472297117
"1883",0
"1884",0
"1885",0
"1886",0
"1887",0
"1888",0.0553897820178472
"1889",0
"1890",0
"1891",3.76867870244268e-10
"1892",0
"1893",9.22968279415404e-06
"1894",0.00101146162431687
"1895",0
"1896",0
"1897",0
"1898",0
"1899",0
"1900",5.55111512312578e-16
"1901",0
"1902",0
"1903",0.0578406440321075
"1904",0.0988353264822579
"1905",0
"1906",0
"1907",1.88841164927567e-11
"1908",0.025445595221486
"1909",0
"1910",0
"1911",0
"1912",0
"1913",0
"1914",0
"1915",0
"1916",0
"1917",0
"1918",0.124379779797597
"1919",0.312777267774937
"1920",0.0233305960080115
"1921",0
"1922",0.685329333967775
"1923",0.020896633639666
"1924",0.000957662680011517
"1925",0.0556973005887222
"1926",0.0685434799899001
"1927",0.31830202924063
"1928",0.00132276823875166
"1929",6.30543718940224e-05
"1930",0.538559593984331
"1931",0.259141779292815
"1932",0.801533301804928
"1933",1.48885847606195e-06
"1934",0.744837259402611
"1935",0.0250297578664682
"1936",0.272008275583443
"1937",0
"1938",0.811160242205056
"1939",0.958713011100599
"1940",0.0177605028546121
"1941",0.198980165350044
"1942",0.00269885890652066
"1943",0.0924053226417848
"1944",0.00898493025532798
"1945",0
"1946",0
"1947",0
"1948",6.77236045021345e-15
"1949",0.145658416403905
"1950",0
"1951",0.246047001620525
"1952",0.00889298741233691
"1953",2.22044604925031e-16
"1954",0.467858131622696
"1955",0
"1956",0
"1957",0.0433005457979235
"1958",0.134933654143514
"1959",0.615359185577319
"1960",0.536398510978889
"1961",0.858105120626336
"1962",0.143444339916723
"1963",0.343027677772458
"1964",0
"1965",0
"1966",0
"1967",0
"1968",0.38572208892688
"1969",6.74959360624783e-08
"1970",0.142718552477544
"1971",0
"1972",0.456098954183987
"1973",0
"1974",0
"1975",0.65088369651985
"1976",0.781088504799016
"1977",0.27302391136495
"1978",0.273052120955739
"1979",0.155014475863109
"1980",2.57618711141383e-07
"1981",0.332848205085243
"1982",0.144876563443757
"1983",0.0290606086050311
"1984",0.385744586102236
"1985",1.37046416437414e-08
"1986",1.36320073895746e-07
"1987",0
"1988",6.46220273985421e-05
"1989",0
"1990",0.0815929472777845
"1991",0.0384158778583689
"1992",0.838823779911434
"1993",0.510114107134841
"1994",0.426347700351519
"1995",0.0860664373835693
"1996",0.581219057519498
"1997",0.419015606480948
"1998",0
"1999",0.00803122476497664
"2000",0.2612466369022
"2001",0
"2002",0
"2003",0.759805718480341
"2004",0.0618405543933478
"2005",0.805773889296989
"2006",0.324652135548166
"2007",0
"2008",0
"2009",0
"2010",9.90782241805377e-08
"2011",0.316191915615632
"2012",0.00575763809209684
"2013",0.0342656231363938
"2014",0
"2015",0
"2016",0.0014411498748701
"2017",0.349889649554123
"2018",0.100618584526385
"2019",0.0129670460136528
"2020",0.0391646207784624
"2021",0.310001829446496
"2022",0
"2023",0
"2024",0
"2025",0
"2026",0.210155175784302
"2027",0.494955977836292
"2028",0.859111562294645
"2029",0
"2030",0
"2031",0
"2032",0.438129778951595
"2033",0
"2034",0.387674932717897
"2035",0
"2036",0
"2037",0
"2038",0
"2039",0.120287945947512
"2040",0.113753553924832
"2041",0.0579499949245238
"2042",0
"2043",0.621268467103081
"2044",0.143824248839687
"2045",0
"2046",0
"2047",0
"2048",0
"2049",0.246693200576577
"2050",0.862041341082324
"2051",0.18542875929435
"2052",0.885537305188436
"2053",0
"2054",0.148615788078517
"2055",0.000235662449908136
"2056",0.102926943696868
"2057",0
"2058",0
"2059",0
"2060",0
"2061",0
"2062",0
"2063",0
"2064",0
"2065",0.000432969650835613
"2066",0
"2067",2.08032066018049e-07
"2068",4.44089209850063e-16
"2069",0
"2070",0
"2071",0
"2072",0
"2073",0
"2074",0
"2075",1.49725193648864e-05
"2076",0
"2077",0
"2078",0
"2079",2.21978824210822e-09
"2080",0
"2081",6.38278960796157e-07
"2082",0
"2083",4.50268711205126e-11
"2084",0
"2085",0.00943428008811675
"2086",2.11598193788909e-06
"2087",0.00124381247239336
"2088",5.38639133296215e-11
"2089",0
"2090",0
"2091",0
"2092",6.49813536313104e-13
"2093",0.00592911939859009
"2094",0
"2095",0.00153531425711606
"2096",0.0010528735509685
"2097",0
"2098",0
"2099",0.00334872756017257
"2100",0.763519275917742
"2101",7.55926432560727e-11
"2102",0
"2103",0.0407377852719973
"2104",0.00151996070585358
"2105",0.00478436838282847
"2106",0
"2107",0.081581192371575
"2108",0.131540470795816
"2109",0
"2110",0
"2111",6.77969524964794e-09
"2112",1.16894729373929e-06
"2113",0.0207511145960676
"2114",0.000118020215086667
"2115",0
"2116",2.09388062444305e-13
"2117",0.000193950307683655
"2118",0
"2119",1.78762518898701e-07
"2120",0
"2121",0
"2122",0
"2123",0
"2124",0
"2125",0
"2126",0
"2127",9.10262976105969e-11
"2128",0.000194356814795182
"2129",0
"2130",0
"2131",0
"2132",0
"2133",0.0403862112290787
"2134",0
"2135",8.68860539071648e-13
"2136",0
"2137",1.87235583283263e-05
"2138",0
"2139",0.373917367483244
"2140",0.530147635983728
"2141",0
"2142",0
"2143",0.000556601351152985
"2144",1.25925349059308e-06
"2145",0.0235552797132794
"2146",0.0152671288083971
"2147",0.0665801452780491
"2148",0.0313012087513987
"2149",6.05303474010555e-09
"2150",2.8423107763631e-05
"2151",6.49005070985087e-06
"2152",0.000887882874096357
"2153",2.05599763547504e-07
"2154",2.67033306577957e-09
"2155",1.62948969306687e-06
"2156",9.51724784022945e-05
"2157",0.000289842305382537
"2158",3.64668181984662e-07
"2159",0.00590919328632056
"2160",0
"2161",0.000449798971213999
"2162",0
"2163",0
"2164",0
"2165",0
"2166",0.00420177408518463
"2167",0
"2168",0
"2169",0
"2170",0
"2171",0
"2172",6.02073946254222e-13
"2173",0.0612818108413139
"2174",0
"2175",0
"2176",1.38824951534389e-10
"2177",6.10622663543836e-15
"2178",0
"2179",4.245869744679e-08
"2180",0
"2181",0
"2182",0.00336435395368551
"2183",0
"2184",0
"2185",0
"2186",0.0024687390260929
"2187",1.78258818817056e-08
"2188",7.81187448062326e-10
"2189",1.37445610448594e-13
"2190",7.45123587275742e-08
"2191",0
"2192",0
"2193",1.33937305690779e-12
"2194",7.26638011983027e-08
"2195",0.038415368512045
"2196",0.834104531026792
"2197",0
"2198",0
"2199",1.17677339572797e-06
"2200",0.0308070247300436
"2201",0
"2202",0
"2203",6.40180393729484e-06
"2204",0
"2205",0.0855400508155769
"2206",0.0021279743716589
"2207",0.149198850303645
"2208",0
"2209",0.516863162162104
"2210",0.878275925513377
"2211",0.105548580052176
"2212",0
"2213",0.0573276140425709
"2214",0
"2215",1.88959958791202e-13
"2216",0
"2217",0
"2218",0.0187535391287275
"2219",0
"2220",0.603320712828186
"2221",2.22044604925031e-16
"2222",0.0157740846436181
"2223",0.0170899796511507
"2224",0.093623300269227
"2225",0.0321627862319245
"2226",0.00308867392011825
"2227",1.42092142643158e-05
"2228",5.91449354493401e-05
"2229",0.0122903799002431
"2230",0.094368114563675
"2231",0.798968234279029
"2232",0.000150710960241218
"2233",0.730671502253188
"2234",1.73194791841524e-14
"2235",0
"2236",0.0523118740158681
"2237",0.00162472655372692
"2238",3.38923527920532e-06
"2239",0.225727691875068
"2240",0.0084430902842384
"2241",4.00943507061768e-07
"2242",0
"2243",0.203339222817561
"2244",0.000295204033198382
"2245",0.0376272957362958
"2246",0
"2247",0
"2248",0.00219610605770315
"2249",0.812515603772948
"2250",0.00154300538585717
"2251",0.0543050866683089
"2252",0
"2253",0.000305924320166961
"2254",0
"2255",0.0276742750517898
"2256",0
"2257",1.93178806284777e-14
"2258",0.00333784267367232
"2259",0.0571640320078459
"2260",0.00029450114655083
"2261",5.88858732609721e-05
"2262",0
"2263",0
"2264",0
"2265",8.31303222725843e-06
"2266",4.19924317540676e-10
"2267",0.000472483588995098
"2268",0.0110720528665101
"2269",0
"2270",0
"2271",0
"2272",0.0830807557266893
"2273",2.56568035372773e-07
"2274",0.0251059064140504
"2275",0.00340641069802361
"2276",5.49404380328911e-05
"2277",0.000558424996018325
"2278",0.00151828018192601
"2279",2.08341776053445e-07
"2280",3.4962925665738e-08
"2281",0
"2282",0.038373455909235
"2283",0.586479864426873
"2284",0.0389109967812817
"2285",0.00112782384146382
"2286",0.446560058101116
"2287",9.99200722162641e-15
"2288",7.93593857135733e-05
"2289",0.000645472460916841
"2290",0
"2291",0.110666193582954
"2292",4.91141051065513e-05
"2293",0.0166982025520549
"2294",0
"2295",0.00729563374752573
"2296",7.43938384739629e-06
"2297",0.143403165769328
"2298",0.0216817296032735
"2299",0.014601980945504
"2300",0.000955992051243859
"2301",1.04341013607012e-09
"2302",0.00103410326170705
"2303",0
"2304",0
"2305",5.55111512312578e-16
"2306",0.0383701806696272
"2307",0
"2308",1.99895164522124e-05
"2309",0.289031836313574
"2310",0.000619526061082287
"2311",0
"2312",2.99760216648792e-14
"2313",0.0140032709998223
"2314",0
"2315",0
"2316",0
"2317",0.000410867929400149
"2318",0.000378698614755923
"2319",0
"2320",7.08715385608905e-05
"2321",0.0449953763250972
"2322",0
"2323",0.016521181844347
"2324",0.247360528334809
"2325",0.766801692787647
"2326",0.00688008860174816
"2327",0.567498882805641
"2328",0
"2329",1.11022302462516e-15
"2330",0.00179046317313525
"2331",6.55031584528842e-15
"2332",0
"2333",5.70203517979984e-06
"2334",0.00248517432035267
"2335",0
"2336",0.0701272684432488
"2337",2.8927105002019e-05
"2338",0.314819016339184
"2339",1.38572486818589e-11
"2340",0
"2341",0.275446730005729
"2342",0.435925665459343
"2343",0.149782977163486
"2344",0.0712470891276802
"2345",0.384889529517697
"2346",0.568489941879627
"2347",0
"2348",0
"2349",0
"2350",2.52665678166508e-05
"2351",0.00802908006501535
"2352",9.78272456798601e-05
"2353",1.11022302462516e-16
"2354",0.0377407030470844
"2355",0
"2356",0.221502382374154
"2357",0.000421905382680499
"2358",9.64849623328323e-05
"2359",8.26711608059583e-07
"2360",7.6629473877432e-08
"2361",0.638350715228688
"2362",0.516245718000708
"2363",0
"2364",5.15126019617895e-09
"2365",0.000372135151210706
"2366",0.667479649543013
"2367",0
"2368",0
"2369",1.28522335673953e-05
"2370",6.27942142727989e-13
"2371",1.14575016141316e-13
"2372",0
"2373",1.77548721891352e-06
"2374",0.000205100028122462
"2375",8.29159985338279e-07
"2376",6.15663076075634e-12
"2377",4.73476813311891e-12
"2378",0
"2379",1.18728074038899e-08
"2380",2.77696399797467e-06
"2381",0
"2382",0.000135280380091141
"2383",0
"2384",0
"2385",0
"2386",7.94194765507683e-09
"2387",1.44572472660087e-07
"2388",0
"2389",0
"2390",6.01740879346835e-14
"2391",0
"2392",5.51572513218801e-08
"2393",0
"2394",0
"2395",0
"2396",8.88178419700125e-16
"2397",0
"2398",0.223078125313232
"2399",0
"2400",0
"2401",0
"2402",0
"2403",6.93066715129476e-10
"2404",0
"2405",1.22124532708767e-15
"2406",0
"2407",0
"2408",0
"2409",2.45159249456783e-07
"2410",0.000376034068834019
"2411",0
"2412",0.000117239732466357
"2413",0
"2414",0
"2415",0
"2416",0
"2417",0
"2418",0
"2419",0.000129204816725403
"2420",0.000567051958650255
"2421",0
"2422",0
"2423",0.0013169994728357
"2424",1.28228005574771e-05
"2425",0
"2426",0
"2427",2.08378301491674e-06
"2428",0.621624648102162
"2429",0.00679786242458336
"2430",0
"2431",0
"2432",0
"2433",0
"2434",2.35367281220533e-14
"2435",3.25302929038429e-09
"2436",0
"2437",0
"2438",0
"2439",0
"2440",0
"2441",4.25424212391334e-06
"2442",0
"2443",0
"2444",0
"2445",0
"2446",0
"2447",0
"2448",0
"2449",7.87108103350587e-06
"2450",0
"2451",0
"2452",0
"2453",0
"2454",0
"2455",0.00387973580816281
"2456",0
"2457",0.000803160461803953
"2458",0
"2459",0
"2460",0
"2461",0.904927188697964
"2462",0.0391483531318237
"2463",0.184174779294035
"2464",0.12159272896844
"2465",0.0159335985928338
"2466",0
"2467",0
"2468",6.01815153267182e-10
"2469",0
"2470",0.00394628833308008
"2471",0.51721296384083
"2472",0.00613072196567355
"2473",0.272704731857184
"2474",0.0375191412193019
"2475",0
"2476",0
"2477",0
"2478",0
"2479",0
"2480",0
"2481",0
"2482",0.00101556306623818
"2483",0.305623040211815
"2484",4.11448652926083e-13
"2485",0.0154517010198837
"2486",0.00544459647389373
"2487",0
"2488",0.48370763758281
"2489",0.060959513002991
"2490",0.00199199974646413
"2491",0.646965879592914
"2492",0
"2493",0
"2494",0
"2495",0.93537268505513
"2496",0.633103133291398
"2497",0.734576080750297
"2498",0.0133496151288784
"2499",0.140134981184536
"2500",0.320782241096158
"2501",0
"2502",0
"2503",0
"2504",0
"2505",5.09592368302947e-14
"2506",0
"2507",2.01305915462635e-05
"2508",5.86579389505459e-08
"2509",0.340377873614618
"2510",0.786801598811104
"2511",0.12819426818614
"2512",0.00125769640318263
"2513",6.86537830582035e-05
"2514",0
"2515",0
"2516",0
"2517",4.44089209850063e-16
"2518",0.707515524305357
"2519",0.000103825747004183
"2520",0
"2521",0
"2522",0.23735779392051
"2523",0
"2524",0
"2525",0
"2526",0.26510598323507
"2527",0
"2528",4.39752678715877e-11
"2529",0.00571865835777985
"2530",0.00561043690123364
"2531",6.4960798675906e-05
"2532",2.1562226930727e-05
"2533",0
"2534",0
"2535",0
"2536",0
"2537",0
"2538",0
"2539",0
"2540",0
"2541",0.0333841073953477
"2542",0
"2543",0
"2544",0
"2545",0
"2546",0
"2547",0
"2548",0
"2549",0.000228728630100594
"2550",0.402163737770828
"2551",0.809619925190003
"2552",0.00232422836553015
"2553",0.00874965961768104
"2554",0.0707143178796827
"2555",0.269032872634651
"2556",0
"2557",6.62803145701218e-14
"2558",0.659711524236734
"2559",0.0304646871527571
"2560",9.69284733032261e-07
"2561",0
"2562",0.0350815292449445
"2563",0
"2564",0
"2565",1.74577117206809e-08
"2566",0.502684289718177
"2567",0
"2568",0.000357354082951566
"2569",0.927550375479828
"2570",0.000895766135153631
"2571",0
"2572",0.0748496088696635
"2573",0.440555018046163
"2574",0.677491475265023
"2575",0
"2576",0
"2577",5.44009282066327e-15
"2578",9.77213865382964e-11
"2579",0.297873701999141
"2580",0.00431929960657573
"2581",0
"2582",0
"2583",0.315984418878642
"2584",0.186622329735499
"2585",0.293590461837191
"2586",0
"2587",0.00352655449439299
"2588",0
"2589",0.730179317510648
"2590",0.0889949794987143
"2591",0.0862090864475104
"2592",8.55108230002344e-07
"2593",0.0234198499024445
"2594",0
"2595",0
"2596",0
"2597",3.25018263414023e-08
"2598",0
"2599",0
"2600",0
"2601",0
"2602",0
"2603",0
"2604",0
"2605",0
"2606",0
"2607",0.401587578249956
"2608",0.0267958860623861
"2609",0.000290084297192572
"2610",9.6744676347793e-07
"2611",1.38943745398024e-10
"2612",1.1583078940447e-10
"2613",0
"2614",0
"2615",0
"2616",0
"2617",0
"2618",1.21340693048921e-09
"2619",0
"2620",0
"2621",0.0507851564703876
"2622",0.00750852211498576
"2623",0.0825557856147436
"2624",0.00778198320173284
"2625",0
"2626",6.01559623669701e-07
"2627",0
"2628",0
"2629",0
"2630",0
"2631",0
"2632",0.000234334528299351
"2633",3.691913441628e-11
"2634",0
"2635",0
"2636",0
"2637",0
"2638",4.91606755304019e-13
"2639",0
"2640",0
"2641",0
"2642",0
"2643",0
"2644",0
"2645",0
"2646",0
"2647",0
"2648",0
"2649",0
"2650",0
"2651",0
"2652",0
"2653",0
"2654",0
"2655",3.20134686537799e-08
"2656",1.7645368625141e-06
"2657",0
"2658",1.86812573954587e-06
"2659",0
"2660",9.2148511043888e-15
"2661",0
"2662",0
"2663",0
"2664",0
"2665",0
"2666",0
"2667",3.07913486001787e-05
"2668",7.39731498278218e-10
"2669",6.31063756806327e-10
"2670",2.03170813506404e-14
"2671",0.205118032298478
"2672",1.69975145070111e-13
"2673",0.000712600306637556
"2674",1.33226762955019e-15
"2675",0
"2676",0
"2677",0
"2678",0
"2679",6.9399007429638e-08
"2680",0
"2681",4.52576043197261e-07
"2682",0
"2683",0
"2684",0
"2685",0
"2686",2.08569513993062e-07
"2687",0
"2688",0
"2689",0
"2690",0
"2691",0
"2692",0
"2693",0
"2694",0.00841918176311129
"2695",0
"2696",1.88737914186277e-15
"2697",0
"2698",0
"2699",0
"2700",0
"2701",2.27813268249832e-09
"2702",0
"2703",0
"2704",0
"2705",0
"2706",0
"2707",0
"2708",0
"2709",0
"2710",7.95503996009472e-10
"2711",0.00850738385189009
"2712",0
"2713",0
"2714",0
"2715",0
"2716",0.000311607017049575
"2717",1.19160433604826e-05
"2718",0
"2719",0
"2720",0
"2721",0
"2722",0
"2723",0
"2724",0.157052427093068
"2725",0
"2726",0.00719722398790301
"2727",0
"2728",0
"2729",8.00426391833753e-12
"2730",0
"2731",0.074731001554437
"2732",0
"2733",0
"2734",4.09445999327573e-09
"2735",0
"2736",0
"2737",0
"2738",9.33808586012219e-13
"2739",1.48762113738599e-11
"2740",0
"2741",0
"2742",0
"2743",8.39966396471992e-05
"2744",0
"2745",2.320312435522e-07
"2746",0
"2747",0.392159993279348
"2748",1.07913677993565e-13
"2749",0.680610347696928
"2750",0
"2751",4.28607877189791e-07
"2752",0.0204161350540025
"2753",1.4525591840453e-08
"2754",0
"2755",0
"2756",0
"2757",0.00990843700187582
"2758",0
"2759",0.000109026460936246
"2760",0.000119677929368955
"2761",0
"2762",1.77195876968073e-05
"2763",0
"2764",0
"2765",3.05587222193537e-10
"2766",0
"2767",0
"2768",2.05598871261259e-10
"2769",0
"2770",5.89750470680883e-13
"2771",0
"2772",0
"2773",0
"2774",0
"2775",7.98161536863518e-12
"2776",0.00588760080127226
"2777",0.000255494976460935
"2778",1.7391078022122e-08
"2779",0
"2780",0
"2781",1.04439877968154e-07
"2782",0.00883900735573817
"2783",0
"2784",0
"2785",0
"2786",0
"2787",1.4432899320127e-15
"2788",9.50298621869017e-05
"2789",0.0030833028705809
"2790",0
"2791",1.60497252077452e-06
"2792",0
"2793",0
"2794",0.000576656552025323
"2795",0.497789470512583
"2796",0.114206494265945
"2797",0.553659190728065
"2798",0
"2799",0
"2800",0
"2801",0
"2802",4.62451249771956e-06
"2803",2.69422955182508e-05
"2804",0
"2805",6.35187488459144e-05
"2806",0.00210222195245491
"2807",0
"2808",0.000739187104208394
"2809",0
"2810",4.44089209850063e-16
"2811",1.63680180520487e-12
"2812",0.0326160251715517
"2813",0
"2814",0
"2815",0
"2816",0
"2817",0
"2818",0.41570588827922
"2819",0.0403909208365131
"2820",0.125256640221613
"2821",0
"2822",0
"2823",0
"2824",0.0867730617445153
"2825",0
"2826",0
"2827",3.19817561411639e-06
"2828",0.498488452282086
"2829",0
"2830",0
"2831",0
"2832",0
"2833",0
