"","x"
"1",0.132114474435951
"2",2.08393286293962e-06
"3",0.9989310887896
"4",0.973297973625154
"5",0.999272551495201
"6",0.980665101313797
"7",0.362246227233663
"8",0.913731209899202
"9",0.824810186799068
"10",0.960689648902338
"11",0.412060040532054
"12",0.996027275302474
"13",0.998160126219729
"14",8.5416881345779e-08
"15",0.328784486099727
"16",0.210608350309013
"17",0.0909590164362206
"18",0.0785868994395277
"19",0.182495232715997
"20",0.98951006872357
"21",0.964529554410796
"22",0.0131847209386216
"23",0.983014501087536
"24",0.999829299435306
"25",0.109646876506254
"26",0.545140451634691
"27",0.99607069730479
"28",0.820258926391793
"29",0.971994321635883
"30",0.551609734423782
"31",0.071363926491827
"32",6.31502125036931e-08
"33",0.819230746348847
"34",0.805624768487338
"35",0.758820342681835
"36",0.813629686502295
"37",0.0516566978390904
"38",0.0346001469983813
"39",0.28758539278938
"40",0.000284406535647097
"41",0.321304619356519
"42",0.234385050071992
"43",0.361731666312318
"44",0.999326310937098
"45",0.24797433297142
"46",0.000165466922805502
"47",0.413487616736198
"48",1.63741357817049e-06
"49",0.750818615109706
"50",0.00494421839478265
"51",0.0150715913153748
"52",0.96429053996254
"53",1.43036693600607e-11
"54",0.0123482528297857
"55",0.00239290746210008
"56",0.00125433765496141
"57",5.42912126366701e-09
"58",8.69838083783492e-08
"59",0.00757481590883557
"60",0.000529158728635681
"61",0.000710270006673119
"62",0
"63",0.147867250028994
"64",1.90103740527192e-08
"65",0.687035363198931
"66",0.0198808385069126
"67",2.72307206783395e-08
"68",0
"69",0
"70",6.30910044084887e-05
"71",0
"72",0.000216882633985338
"73",1.39777078800307e-13
"74",0.00246922732646837
"75",4.26090779492849e-06
"76",0.330717569972045
"77",0.938227825100712
"78",0.888936443117891
"79",0.655943671489581
"80",0
"81",5.21529929797815e-07
"82",5.55761371368035e-08
"83",0
"84",0
"85",0.185399422290837
"86",0.824979684445565
"87",0.313423857828498
"88",3.59245582689516e-05
"89",0.377229417795335
"90",0.534819285117329
"91",0.155449180317575
"92",0.422291669994869
"93",2.77089462485947e-12
"94",0
"95",0.0780833838378089
"96",0.803094652337622
"97",0.373973193738673
"98",0
"99",0
"100",0.785986252975845
"101",0.201512518681446
"102",0.437423186930593
"103",0.586289128860908
"104",2.4479366399488e-06
"105",0.83452902642478
"106",0
"107",1.38911235181283e-07
"108",0.921689782643101
"109",1.72309074897292e-07
"110",0
"111",6.53214856333184e-05
"112",5.37078603812802e-10
"113",0.0422160133417929
"114",0.471986790849815
"115",6.67851596247715e-09
"116",0.047811965183158
"117",6.86514423087203e-09
"118",0.877606514615041
"119",0.710314088153076
"120",0.95079567384184
"121",1.21225807170333e-10
"122",0
"123",0.151329684764955
"124",0.0246132041039104
"125",0.324660847355733
"126",0.361775546694466
"127",0.761777115607237
"128",0.163023174385634
"129",0.352810974748355
"130",0.0258266995545803
"131",0.484614387029873
"132",5.37069675399238e-08
"133",0.509059834730015
"134",0
"135",2.08055794814754e-13
"136",0.00258457705352322
"137",0.603523006339416
"138",0.358243492645468
"139",0.466513403637738
"140",0.828834321195921
"141",0.345347909826055
"142",0.801995156469972
"143",0.524409281112535
"144",0.791587699655777
"145",0.156752340125988
"146",0.152350753858921
"147",0
"148",0.767457426473055
"149",0.639851105830035
"150",3.20798942965439e-12
"151",0.268435373159874
"152",4.66930648611585e-05
"153",0.350850337461052
"154",0.737176584285353
"155",0.557994820359767
"156",0.831013404517642
"157",0.917278611922782
"158",1.11022302462516e-15
"159",0.574416690008269
"160",0.0503275224035938
"161",0.235720173483566
"162",0.98667833863038
"163",0.665209451531034
"164",0.910070553255
"165",0.152410267331103
"166",0.28923656092502
"167",0.111348758104367
"168",0.777352925366483
"169",0.0514255650293298
"170",0.730458408195617
"171",0.251248091370464
"172",0.689850861559687
"173",0
"174",2.33516236347597e-08
"175",0
"176",0.0100960751255708
"177",0.294457548107042
"178",0.0458898640032755
"179",0.00241297057441148
"180",0.128865110180258
"181",0.300413383672499
"182",0.0200439973643536
"183",0.0414787678039543
"184",0.0145040910581675
"185",0.390056734005531
"186",0.281822741096244
"187",0.306614581859127
"188",0.115803477798887
"189",0.0142657549942615
"190",0.551376558349195
"191",9.43650976414911e-06
"192",0.0736634451053937
"193",5.28519339404454e-10
"194",0.00304351224336019
"195",0.0317109155812303
"196",0.0444175058147498
"197",0.0421075012592786
"198",0.540383423041561
"199",2.77111666946439e-13
"200",0.0111977234273557
"201",0.229361405095891
"202",7.63235470380152e-08
"203",0.0183219720411374
"204",0.09925112187412
"205",0.00277448315375217
"206",0.000170697618976812
"207",0.0244232207840941
"208",1.68677130059081e-05
"209",0.0338715729554181
"210",1.56208102009003e-09
"211",5.88648006039083e-06
"212",1.11022302462516e-16
"213",0
"214",0
"215",7.92510501668175e-12
"216",0.863172604259519
"217",0.785816079374784
"218",0.647301751483091
"219",0.0924891810749546
"220",0.513051402795561
"221",0.0114580293003057
"222",4.27240256428707e-06
"223",0.223043522323259
"224",0.157285333080528
"225",0.000135530822063634
"226",0.0257401287203985
"227",0.489078320878192
"228",0.594000050036351
"229",0.31754648160984
"230",0.933271582958345
"231",0.0479532461061004
"232",0.0208069944047956
"233",0.000772425994414516
"234",1.32470586722278e-08
"235",0.0693618950306877
"236",0.912222603962666
"237",0.238270643503823
"238",9.89583503052671e-06
"239",0.290096705187207
"240",0.124620727987529
"241",0.225356997234084
"242",0.258140616918328
"243",0.186126322200635
"244",0.990701364566428
"245",5.79243406864105e-05
"246",0.166269685872261
"247",0.92022678155575
"248",0.361384740783988
"249",0.00232798980997106
"250",0.522941335137051
"251",0.00729099099861596
"252",0.289870128666781
"253",0.0106851202079891
"254",0.643528948200216
"255",0.255877794725519
"256",7.31636973227978e-14
"257",4.79768891281651e-09
"258",0
"259",0
"260",3.27626814566884e-13
"261",0.190222145548349
"262",0.0036105097214586
"263",8.74121400817884e-08
"264",0.635327452853441
"265",0.8809064113345
"266",0.350331191277775
"267",5.77315972805081e-15
"268",0.484849030577702
"269",0.186798034998283
"270",0.000997115904518342
"271",8.91509088774001e-14
"272",0.549915418247923
"273",0.992282670368026
"274",2.19693152558875e-11
"275",0.0360238739920903
"276",4.87772122692576e-09
"277",0
"278",7.55072713676253e-06
"279",0.707706368487651
"280",0.726984086787733
"281",0.193084612738961
"282",0.343945899822497
"283",0.000370418873732681
"284",0.962769278862023
"285",0
"286",0
"287",0.998840663090104
"288",3.5850377322344e-07
"289",0
"290",0.945596976224244
"291",1.30851577503366e-05
"292",0
"293",0
"294",0
"295",1.11022302462516e-16
"296",1.55653268052447e-13
"297",2.32282570955533e-09
"298",9.23716769740679e-10
"299",0.483048830918494
"300",0
"301",0.000398438430928905
"302",0.271118262046981
"303",0.0448917845651098
"304",0.152475645249155
"305",0.976804965301358
"306",0
"307",0
"308",1.10794937995262e-05
"309",0.136031107614846
"310",0.00834693017648391
"311",0.272578283168407
"312",4.70559147203176e-11
"313",0.061438224674415
"314",2.28284647669774e-05
"315",0.129997417604931
"316",9.49258007438836e-05
"317",0.0624116925277093
"318",0.0345229691785046
"319",0
"320",0.0018777915043765
"321",5.76671652652294e-08
"322",0
"323",1.63202784619898e-13
"324",3.85424961686365e-05
"325",1.64750324493923e-09
"326",0.635581926613217
"327",0.0344765249144825
"328",0
"329",0.0625564404025771
"330",0
"331",0
"332",0.0091902483797488
"333",1.5794794971935e-07
"334",1.96937139520514e-05
"335",0.000339045475810873
"336",0.00131805525519291
"337",3.33655687079215e-07
"338",0.86938257668273
"339",0
"340",0.011161872045797
"341",1.19039644808083e-09
"342",0.0102914220843449
"343",0.0872746388309356
"344",0.0241592736988492
"345",0.0327255974746251
"346",0
"347",0
"348",0
"349",0.470590804330611
"350",2.53702303609771e-09
"351",0.153532361666876
"352",0.0307467154304355
"353",0
"354",0
"355",0
"356",4.24463484892668e-05
"357",7.68027141946348e-05
"358",8.83371154003498e-12
"359",0
"360",0.0509528486666981
"361",0.000392629124532196
"362",0.0844576596420192
"363",0.00234307236321762
"364",0.505338993096057
"365",0.000737235999648145
"366",1.36203537337565e-09
"367",2.41751063612128e-12
"368",0
"369",0.148110158277568
"370",0
"371",0.00131021774138462
"372",8.48454639879037e-12
"373",2.76800804499544e-12
"374",0
"375",0.000219493029363416
"376",0
"377",2.86353882119617e-05
"378",0
"379",0
"380",0.977205958995697
"381",0
"382",1.80744308408975e-13
"383",1.13253844080674e-07
"384",0.00015697905631451
"385",0.91595249041532
"386",0.000168583969151981
"387",3.0720633814596e-08
"388",0.0116894261507385
"389",1.27408528172168e-10
"390",0.597793787757535
"391",5.55111512312578e-16
"392",0.0148781732686433
"393",0.00123519475151568
"394",0.00207512984772917
"395",0.935462261117042
"396",0.243334456976514
"397",0.00058499579156579
"398",0.016212741382269
"399",0.100574488040001
"400",0.144961290677029
"401",0.213719572701372
"402",0.0887117520126541
"403",0.782243116571433
"404",0.000173075420526581
"405",0.892321496293154
"406",0.211919171210539
"407",0.112748756226434
"408",0.990045611954936
"409",0.089914736589624
"410",0.00935733548095363
"411",7.50102226220184e-05
"412",0.861955522816913
"413",0
"414",1.45665828032993e-06
"415",0.0857218126999426
"416",0.0141955394853832
"417",0
"418",0.511418969523405
"419",0.611076327413471
"420",6.31290433261711e-08
"421",0.634665789217847
"422",0.260946791944011
"423",0.136618987034564
"424",0.830255537740784
"425",2.09263885886379e-07
"426",0.788282116141989
"427",0.731559653204799
"428",0
"429",0.938078996424509
"430",0.00802397413525202
"431",0.587906099549413
"432",0.00174345195544734
"433",0.000256489536644033
"434",0.000221865865102311
"435",0
"436",0
"437",0
"438",0
"439",0.703062584342821
"440",0.00291527978812423
"441",0
"442",0
"443",2.09937178752284e-10
"444",0.00850300750083444
"445",0
"446",0
"447",0
"448",2.36694448729757e-06
"449",0.0198298167364294
"450",0.0328237861670007
"451",0
"452",0.210582492462248
"453",0.892828701771772
"454",0.281649158293184
"455",0.796859127021508
"456",9.04368917231668e-06
"457",6.17066497343721e-07
"458",0.0387965273006572
"459",0.889677890056742
"460",0.333238452991282
"461",0.0190836351702812
"462",0.00962161753256585
"463",0.895832946687794
"464",0.852732430852193
"465",0.739856635626757
"466",0.719102693936674
"467",0.659088712450451
"468",0.786747084880927
"469",0.930392562408645
"470",0
"471",0.92639023690936
"472",0.293069896902516
"473",0.153210386212831
"474",0.158478775587821
"475",1.74722269985494e-09
"476",0.640437902977247
"477",0.391909819208991
"478",0.633634812606571
"479",2.4766788229158e-06
"480",0.96813097926941
"481",0.250475957054525
"482",0.0268716531858411
"483",0.00382174141673219
"484",0.611840227647285
"485",0.79929740922398
"486",0.0376314977167884
"487",0
"488",0.868980412538607
"489",0.491465051871028
"490",8.71561722792791e-08
"491",0.716513223127929
"492",0
"493",1.11022302462516e-16
"494",0.0393582525350437
"495",1.10756886440022e-07
"496",0.651733827069117
"497",0.861356926437545
"498",0.199911906427669
"499",0.832420421656575
"500",0.00816643999510658
"501",0.637779672000417
"502",0.324056948728461
"503",0.943159626797682
"504",0.338928344646892
"505",0
"506",0.160868174763817
"507",0
"508",0.00294684639103415
"509",5.79103431874728e-12
"510",0
"511",2.98769456952286e-08
"512",0.967505406548614
"513",0.237341647740373
"514",0.29214495758857
"515",0.168547762822757
"516",0.406836704976564
"517",0.732829194975164
"518",0.65950728512569
"519",0
"520",0.0326906737914605
"521",0.997702780712027
"522",0
"523",0.1226534349506
"524",0.99470898570271
"525",0.330694474346248
"526",0.259302703320938
"527",0.399704580230378
"528",0
"529",0
"530",6.25463054682029e-08
"531",4.44089209850063e-16
"532",0
"533",2.45180542535195e-11
"534",0
"535",0
"536",0
"537",0
"538",0.00167449019844246
"539",0.281385197226342
"540",0.027507914602855
"541",0.536870700325505
"542",0.945859228939144
"543",0.575087174907581
"544",0.711274081614515
"545",0.399123073052385
"546",0.0369804729511255
"547",0.0167758859932325
"548",0.466042209738972
"549",0.644334874313368
"550",0
"551",0
"552",0.000188365729887008
"553",0
"554",0.102292834900123
"555",0.500040066143371
"556",0.0209471132751984
"557",8.7450899236563e-06
"558",0.0183519073625376
"559",0
"560",3.10862446895044e-15
"561",0
"562",8.52976718527243e-05
"563",0.00017939624640062
"564",0.877987119353667
"565",3.1162817141217e-05
"566",0
"567",0
"568",0.48128859250423
"569",0.768950019289638
"570",0.0688835814033792
"571",0
"572",2.13301720730641e-09
"573",0.0153746080903258
"574",0.480359598497776
"575",2.23815840305619e-08
"576",9.72555369571637e-14
"577",0.141673661312347
"578",0.972322948926639
"579",0
"580",0.0146656766494947
"581",0.925596968956895
"582",0.000153374210883683
"583",0
"584",0.818236980509314
"585",0
"586",1.7133899484767e-06
"587",0
"588",0.00084368418056302
"589",0.0410102216560119
"590",0
"591",0
"592",0.129695911970947
"593",0.685500428183133
"594",0.716773684060798
"595",0.865116641793246
"596",0.238732003807459
"597",0.0965182134537597
"598",0
"599",0
"600",4.87387907810444e-14
"601",0.00837670101485599
"602",0.000740146930881869
"603",0.0258255805842642
"604",0.117159930155347
"605",0.505988006426073
"606",0.522772921697668
"607",0.217095356261053
"608",0.0302221842470702
"609",3.15114601079358e-12
"610",1.96907126159829e-08
"611",1.93065563536265e-11
"612",0.00084726241934896
"613",0.345589625086802
"614",0.6388552708371
"615",1.13725540096254e-08
"616",0.149507248314714
"617",0
"618",0
"619",0.954550660353045
"620",0.230626017507263
"621",0.0896405122454693
"622",6.2125571542726e-07
"623",0.000124485669179442
"624",0.583417604595323
"625",1.83389556873692e-08
"626",0.233632818103953
"627",0.0122232184785525
"628",1.11022302462516e-16
"629",0.447044049979121
"630",0.00283548018043256
"631",0.0808928164380541
"632",8.5607484172856e-05
"633",0.525814245906165
"634",0.558744550757446
"635",0.400617222911417
"636",0.311939494704044
"637",0.00148388441580038
"638",0.101357044839449
"639",0.82630247279232
"640",0.0621399135700946
"641",2.07511785532688e-12
"642",0.479307045372622
"643",0.115561681508355
"644",0.116904008501589
"645",0.0171682872925367
"646",0.0348378725715489
"647",1.00995730178965e-06
"648",0.00276993246214363
"649",0.434529806452682
"650",0.31513373651499
"651",0.133512537828083
"652",0.00105013394234976
"653",4.6074255521944e-14
"654",0.0215397614184012
"655",0.0473556172678631
"656",0.469118528989117
"657",0.831209068623778
"658",0.108187618016441
"659",0
"660",0.00260887027562495
"661",0.0267561075745951
"662",0.834679420637333
"663",0.576474206184616
"664",0.154805870467558
"665",1.8210877250624e-11
"666",0.565076474399426
"667",5.3617675158657e-06
"668",0.243490510260507
"669",1.80859649504539e-05
"670",0.122172164240446
"671",0.548044415557326
"672",0.00428420533466911
"673",0.428271743989047
"674",0.00566104438421855
"675",0.0466958254593147
"676",1.11022302462516e-16
"677",0.000684477107992354
"678",0.832635913462902
"679",0.622285758739961
"680",9.36602748283777e-05
"681",0.241236283135925
"682",0.544524358484082
"683",0.225782300375397
"684",0
"685",0.165027165316318
"686",4.85836967845099e-06
"687",0.836267912999595
"688",0.0590815086827656
"689",0.323587611030362
"690",6.25055562863963e-14
"691",5.91970916730133e-13
"692",0.51286721509809
"693",0.471453742026815
"694",0.111311157918426
"695",0
"696",0.722855554569738
"697",0.852468165191578
"698",0.0104773633989117
"699",0
"700",0.303001461383856
"701",0.851361910663301
"702",0.515029711477386
"703",0.00463630962700046
"704",0.0502987185558121
"705",0.552367086619486
"706",0.0135468495154755
"707",4.77706763035712e-12
"708",0.0839688160967089
"709",0.477482561013854
"710",0.530955651159621
"711",0
"712",0.167511011325881
"713",0.000252363693845847
"714",0.00540538997769091
"715",0.00117616562620793
"716",1.18633617485209e-07
"717",9.64160468475139e-06
"718",2.65437564576088e-05
"719",0.197457763793036
"720",0.332177114794928
"721",0
"722",5.88418203051333e-15
"723",0
"724",0.219599393294784
"725",0.26701636779126
"726",0.0706693695245574
"727",2.00950367457153e-14
"728",0.0170287216705244
"729",0.00191965422378271
"730",0.379269395390095
"731",4.14113188185183e-14
"732",2.11876743608785e-05
"733",6.25634659618957e-05
"734",0.0125979820755815
"735",0.968720299295884
"736",0.206863748328147
"737",0.986918011610501
"738",0.76209722872814
"739",0.525526835248134
"740",0.571323833631135
"741",3.18698738510648e-08
"742",9.00226161426598e-06
"743",0.392530592738886
"744",6.76100508911759e-10
"745",0.0240746074869975
"746",0
"747",1.11022302462516e-16
"748",0.364408800581663
"749",0
"750",0.806894424625762
"751",0.000115601033077173
"752",0.602205010064165
"753",0.812818245019731
"754",0
"755",0.995939072224445
"756",0.478404211030559
"757",2.96949750377973e-05
"758",0.848517090964504
"759",7.91863881910437e-07
"760",0.000183013791594022
"761",4.74966720165337e-06
"762",1.44395606582748e-12
"763",0.006726848368799
"764",0.00856532951078814
"765",0.0441989254311415
"766",2.49038721866768e-08
"767",0.82215977820786
"768",0.000560834826115797
"769",0.000274122267874821
"770",0.846738339996212
"771",0.178378311668858
"772",0
"773",0.156395898705197
"774",0.161557715847738
"775",0.00736616431791903
"776",0
"777",0.000440904950430476
"778",0.964478190055831
"779",0.000661051533838219
"780",2.13354409599464e-05
"781",0.00846550749535624
"782",0
"783",0.0538917318320778
"784",1.56985535681997e-13
"785",0.159740296199172
"786",0.143941403466835
"787",0.00527102814992564
"788",0.047962063415919
"789",0.018524899248292
"790",0.0188013082082261
"791",0.0278106863765123
"792",0.546348698644877
"793",0.00667703880939197
"794",0.0961890462825865
"795",0
"796",2.35724872765797e-06
"797",0.0719026694352414
"798",0.0362575114491918
"799",0.125958289991634
"800",3.10618124178541e-05
"801",0.00160616455327478
"802",8.49769143940193e-11
"803",9.99200722162641e-16
"804",0
"805",0.000169278751581903
"806",0.159545230132391
"807",0.0323624217787311
"808",8.35098656892796e-12
"809",0.0308792514932198
"810",1.94256521979241e-09
"811",0.0458946334103347
"812",0.946390689655344
"813",0.00986165250945992
"814",0.00115838418266279
"815",5.13478644881271e-05
"816",0.0814148631608957
"817",0.280110975059109
"818",0.0640326801314288
"819",0.000120523154299446
"820",0.911154916774498
"821",0.00208548758679872
"822",0.373305752294818
"823",0.110057614812905
"824",0.0309978590038323
"825",0.0223780415149971
"826",7.36188887628941e-13
"827",0.425210660662535
"828",0.130979709834013
"829",0.0212687570623111
"830",0.0123907606409632
"831",0.428188946406768
"832",0.000421270001442764
"833",0.0262339782996286
"834",0.506958955731058
"835",0.00433397551609915
"836",0.0896831687773055
"837",0.000148866857891505
"838",0.00291445078115526
"839",0.865105528870079
"840",0.643824820939858
"841",0.851172873925592
"842",0.440371326539657
"843",0.00309819667833477
"844",0.932490649110603
"845",0.380400536679259
"846",0.023128169582931
"847",0.260412085176554
"848",0.0029000910950836
"849",0.575712173570085
"850",0
"851",0.00597502228697266
"852",0.585076648524949
"853",0.255817089120211
"854",0.0133405090783627
"855",0
"856",8.24895707296491e-14
"857",0.000684738882955949
"858",0.266371333856964
"859",0.50857179209857
"860",3.03750561485572e-05
"861",0.323566425030745
"862",0.0269975860112851
"863",0.00810855280752121
"864",0.426264300347889
"865",1.42002835046284e-08
"866",1.06015196621456e-12
"867",0.171084269237838
"868",0.0799138351320418
"869",0
"870",0.00154321577092364
"871",0.0142076635985623
"872",0.506896506046449
"873",0.382171710502147
"874",0.096935006294593
"875",0.266043859840323
"876",0.815443883810372
"877",0.0354806122821208
"878",0.433013066751353
"879",0.177543528455143
"880",0.00252058853439119
"881",0.0249421439240075
"882",0.397708783600317
"883",0.000100792728319865
"884",0.466212763865607
"885",0.549358688319242
"886",0.729578251795448
"887",0.10748187227313
"888",0.437467366047717
"889",1.2676891105734e-06
"890",0.0002186936215266
"891",0.000114723901948333
"892",0.309775964195781
"893",0.00145259520194563
"894",0.686181372222039
"895",7.65567076244089e-06
"896",0.0318315488701866
"897",0
"898",0.0270514078055976
"899",0.0771863057643407
"900",2.70303472915678e-06
"901",0.241664983532498
"902",0.00285914622202987
"903",0.0026759045994178
"904",0.11344568834979
"905",0.046712085734546
"906",0.239593315428023
"907",0.0390470810268952
"908",0.000293275384683822
"909",0.000118803953404689
"910",0
"911",9.61101553897947e-09
"912",0.297333037036655
"913",0.798383946704899
"914",0.0526569888198007
"915",4.7177395323672e-10
"916",0.000461150398016752
"917",0.0103712409424429
"918",9.58306267673237e-09
"919",0
"920",9.02167229810402e-12
"921",1.02851061001275e-12
"922",0.000180913549296169
"923",0.0661134823603494
"924",0.111037857616756
"925",0
"926",0.00493378046329496
"927",0.0826070426752518
"928",0.419029942604849
"929",0
"930",0
"931",0.000674721909691312
"932",4.39676309593739e-05
"933",0.574727498651622
"934",4.65303010566132e-07
"935",0.0121886452473385
"936",0.688290718698078
"937",0.00860988172894073
"938",0.22086150423251
"939",0.00953420805382454
"940",0.00126251793953824
"941",0.00131726614692218
"942",0.140402350269103
"943",8.005818230572e-13
"944",2.06775152555849e-10
"945",1.33019151249414e-11
"946",0.883150169339845
"947",0.785791082533254
"948",0.0015519053215961
"949",0
"950",0.192424776650946
"951",0.947328177344582
"952",0.190322108795284
"953",0.325480099041612
"954",2.19256616568186e-05
"955",0
"956",0.757754228298013
"957",0.591370147593079
"958",0.00283523792362306
"959",0
"960",0
"961",0.734857521236494
"962",0.291007367162537
"963",0.15136167108474
"964",0.0789791517771112
"965",0.342790073944719
"966",0
"967",0.0144365353333029
"968",0.0373194387290711
"969",1.03958083996769e-06
"970",0.000372121817847848
"971",0
"972",4.94049245958195e-14
"973",0.653765797170159
"974",6.00447103482615e-07
"975",0.0540099845391321
"976",0.321016372513798
"977",0.188507972057923
"978",0.0323612138489224
"979",0
"980",0.448285224561474
"981",0.343106093548169
"982",0.00839773084692252
"983",0
"984",1.40182747632167e-08
"985",6.69464483848969e-14
"986",0.00159869010912883
"987",1.22124532708767e-15
"988",0.00172249199328212
"989",5.65555949960661e-06
"990",0.000481533625820152
"991",8.93623264275334e-09
"992",1.71914704694132e-11
"993",0.420031338394704
"994",0.75437849493537
"995",2.44593234555168e-12
"996",0.00627427388135782
"997",1.73440268258496e-06
"998",0
"999",0.0904928894579249
"1000",4.09346101459818e-08
"1001",0.129015087039035
"1002",0
"1003",5.07399252824836e-06
"1004",2.49252943407274e-05
"1005",0
"1006",0.00142918036558248
"1007",0.0867542463219894
"1008",0
"1009",0.0814002681226461
"1010",0.0672919952720523
"1011",0.0575884974177285
"1012",5.55888668429816e-13
"1013",0
"1014",7.26085858104852e-14
"1015",2.780431440641e-11
"1016",0.25833111407002
"1017",0.0188304721350679
"1018",0.00064080707003944
"1019",6.99737829901181e-08
"1020",1.143765510081e-07
"1021",4.4202419502426e-11
"1022",0.000174094006117009
"1023",0.0131101023420992
"1024",0.0157812149627007
"1025",3.29981864166662e-07
"1026",0.0192751707584419
"1027",0
"1028",0.0158275728720733
"1029",3.49659803300373e-06
"1030",3.62003541698463e-07
"1031",0.514380975877755
"1032",5.2557763186023e-07
"1033",0.000157252629297222
"1034",0.0976729841027287
"1035",0
"1036",0.00386241532907827
"1037",0.0155345647722344
"1038",6.87797844078908e-06
"1039",0
"1040",6.97703413876649e-06
"1041",9.59248298439963e-05
"1042",0.459375495990865
"1043",0.282731177240849
"1044",0
"1045",0.623445883444745
"1046",0
"1047",0
"1048",0
"1049",2.69515750717098e-07
"1050",0
"1051",0.0132226387624149
"1052",0
"1053",0.0240711751833315
"1054",2.1992963006312e-11
"1055",0.137278472885213
"1056",0.364328100061325
"1057",0
"1058",2.43011408818106e-06
"1059",0
"1060",2.16882067860524e-12
"1061",0.703181217092089
"1062",6.29825546103469e-05
"1063",0.900140209119252
"1064",4.07101947850208e-05
"1065",0.78943865283935
"1066",0.474959628260387
"1067",1.07681308314511e-10
"1068",0.00301097547066365
"1069",0.0348734222142201
"1070",0.81899981230056
"1071",0.000303522959072322
"1072",8.67558946904268e-09
"1073",3.17231892010827e-05
"1074",0.137952948946983
"1075",0.188539098598783
"1076",1.71583489113614e-05
"1077",0.000460160289083911
"1078",3.80806497446429e-14
"1079",0.0028485096736135
"1080",0.000450582800937571
"1081",0
"1082",0.0430912159855567
"1083",1.48854904984397e-05
"1084",0
"1085",0.00140607225906586
"1086",0.0619616683515063
"1087",0.000216534021725279
"1088",2.19813024449067e-07
"1089",0.18682504831747
"1090",0.966821514785832
"1091",0.0199404027880062
"1092",0.0133307178478012
"1093",0.353959359474203
"1094",0.736490996177086
"1095",0.454563747898535
"1096",1.2393210901962e-09
"1097",0.0443970401493787
"1098",0.0941777628194493
"1099",0.0282653767961775
"1100",0.227740608810676
"1101",0.212732906272113
"1102",0
"1103",0.150518978548321
"1104",0.000129979062923447
"1105",3.89514920173806e-06
"1106",0.027458099440861
"1107",1.11570421423846e-06
"1108",0.201586618879123
"1109",2.38697950294409e-14
"1110",0
"1111",0.0239613347295908
"1112",0
"1113",0.0134283488446946
"1114",0.0012606082097194
"1115",4.18273325619722e-06
"1116",0
"1117",0.00155155305795263
"1118",0.00116381891309636
"1119",6.87808566279813e-06
"1120",0.104021809147482
"1121",0.0247439322906144
"1122",0.627301652091997
"1123",1.69968150665056e-10
"1124",1.92466363957422e-08
"1125",3.04134495365815e-11
"1126",0
"1127",3.18769588503187e-09
"1128",0.000191445293578063
"1129",0.000404828806275015
"1130",7.3041572790089e-13
"1131",2.27187687918962e-05
"1132",0.956471546007087
"1133",0
"1134",0
"1135",2.4625311901838e-06
"1136",0
"1137",0
"1138",0
"1139",0.00365565551924574
"1140",0
"1141",0
"1142",0.00385643388713131
"1143",3.32839205985369e-06
"1144",6.56793952558132e-10
"1145",1.88737914186277e-15
"1146",0.00169106495523474
"1147",0.144192893595356
"1148",0.147442101144101
"1149",0.736420338363861
"1150",0.000341161356306463
"1151",1.11022302462516e-16
"1152",0.0446580067606566
"1153",0.00146620242838302
"1154",0.00022423249261172
"1155",0.0039847120794021
"1156",0
"1157",0.254352010472852
"1158",0.589281296513821
"1159",0.958238076283968
"1160",0
"1161",0.0713959519440033
"1162",0.121764505613375
"1163",0.157288082550443
"1164",0
"1165",0.120447654718648
"1166",4.06119582407882e-13
"1167",2.90350380439675e-05
"1168",0.0128795092172339
"1169",0
"1170",0
"1171",0
"1172",0.0700171066276315
"1173",0.413201338394358
"1174",0
"1175",0.21492795723185
"1176",0.000837927748423062
"1177",0.112830630315285
"1178",0
"1179",0.476254106793242
"1180",0.44304849739854
"1181",0.303350761286723
"1182",0.105535303862864
"1183",0.396139390468811
"1184",0.047964961030686
"1185",0
"1186",0.361734243765129
"1187",0.0482766518367095
"1188",8.6941443544486e-07
"1189",0.427398851155858
"1190",0.00141525469492021
"1191",1.25775516668369e-07
"1192",0
"1193",0
"1194",0.0685151318400935
"1195",0.683223730844351
"1196",0
"1197",0
"1198",0
"1199",1.98005319925754e-05
"1200",0
"1201",0
"1202",0
"1203",0.00277607646595679
"1204",0
"1205",0.0280270240551953
"1206",0.908715154539624
"1207",0.0149907094514001
"1208",0.0251247314468869
"1209",0.609955773185205
"1210",1.0237511611777e-05
"1211",0
"1212",0.131480769813755
"1213",0.840520592846206
"1214",0.0373365752704846
"1215",0.88613070490281
"1216",0.61917030770237
"1217",0.111354013119536
"1218",0
"1219",0
"1220",3.395548777263e-06
"1221",0.775091698749162
"1222",0
"1223",6.61599230955545e-07
"1224",0
"1225",0
"1226",0
"1227",0
"1228",0
"1229",0.000302220277855425
"1230",0.438396927832261
"1231",0.789801283687582
"1232",0.710459383754031
"1233",0.0224328836668968
"1234",0.215816574480606
"1235",0.0805499065605476
"1236",9.13461972729124e-10
"1237",0.721032219957434
"1238",0.0629720220889243
"1239",0.361695568004436
"1240",0.924043930697215
"1241",0.30915822635024
"1242",0.536890424234834
"1243",0.00469586092575291
"1244",0.101060469748114
"1245",1.53624668541852e-10
"1246",0.0844655122450392
"1247",0
"1248",0.0369929127190155
"1249",0.448924034727343
"1250",0.351853417092419
"1251",0.357075139563404
"1252",0.520488793624185
"1253",0
"1254",0
"1255",0
"1256",9.99200722162641e-15
"1257",0
"1258",0.0898200338464954
"1259",0
"1260",0
"1261",0
"1262",0
"1263",0.0172793697957355
"1264",0.93070629660025
"1265",1.0813572259849e-13
"1266",0.000357841219892463
"1267",0.155006495431973
"1268",0.00237020176996705
"1269",0.221833095909779
"1270",0.695636606090005
"1271",0.0581209472900889
"1272",0
"1273",0.0955059378543605
"1274",0.228608968973249
"1275",0.206771599232217
"1276",0.232978924133646
"1277",0.0282424711347766
"1278",0.168028519161557
"1279",0
"1280",0
"1281",0.847162268355827
"1282",0.375418729633728
"1283",0
"1284",0.445093050505894
"1285",0
"1286",0.000764697003408088
"1287",0.000169637636543096
"1288",0
"1289",0
"1290",0.0608679599383715
"1291",0
"1292",0.597545665587273
"1293",0
"1294",1.22124532708767e-15
"1295",0.572171862837886
"1296",0.60207996151675
"1297",0.0830252734024887
"1298",4.0197845052603e-12
"1299",0
"1300",6.5714100827563e-12
"1301",0
"1302",0
"1303",0.524020583954519
"1304",0.996413305387156
"1305",0.572489121722775
"1306",0.000158191901102778
"1307",0.0257659386175452
"1308",0.427925032601221
"1309",0
"1310",0
"1311",0
"1312",0.0624104830049198
"1313",0
"1314",4.65753142029346e-05
"1315",7.38964445190504e-13
"1316",0.101124248218921
"1317",0.0383894022547153
"1318",0.114672431448723
"1319",0.700139522037882
"1320",0.0393237961148454
"1321",5.55111512312578e-16
"1322",0.22244493322635
"1323",0.125020694480926
"1324",0
"1325",0
"1326",1.52349023396781e-08
"1327",0.152223919337633
"1328",0.000110570329390214
"1329",0.0291448339520344
"1330",2.14951625165938e-05
"1331",0.496101381111022
"1332",0.0719512926443494
"1333",0.233742243099751
"1334",0.0519213090867489
"1335",0
"1336",0
"1337",7.76443321859333e-08
"1338",0
"1339",6.08402217494586e-13
"1340",4.13909856840089e-05
"1341",1.07284625627813e-10
"1342",0
"1343",0
"1344",1.0769163338864e-14
"1345",5.82846404473258e-08
"1346",0
"1347",0
"1348",0.000119954685680046
"1349",0.0470170293676248
"1350",4.09229772291297e-09
"1351",0
"1352",0
"1353",0.641638674382864
"1354",1.02890061783878e-05
"1355",2.05391259555654e-14
"1356",0
"1357",0
"1358",7.27351698870393e-08
"1359",0.029998261611347
"1360",0
"1361",0
"1362",5.55111512312578e-16
"1363",6.98236265472829e-08
"1364",0
"1365",1.1732381510754e-07
"1366",0
"1367",0
"1368",0
"1369",0
"1370",0.000732747419600721
"1371",0.00173190589403349
"1372",3.91697785318001e-12
"1373",0.0120436797957563
"1374",0.00182440716609411
"1375",0.000329449339256049
"1376",0.115076422545345
"1377",0.59799082695496
"1378",0.259314260315539
"1379",0.00266066207608773
"1380",0.125632488419479
"1381",0.00867508893215863
"1382",0.0215951292313171
"1383",0.0294709163411292
"1384",0.000237889731414587
"1385",0
"1386",0
"1387",0
"1388",0
"1389",0
"1390",7.41119499103604e-10
"1391",0
"1392",0
"1393",0
"1394",2.34953181176278e-05
"1395",2.97661895132251e-12
"1396",0.000933152389808289
"1397",1.04323131555617e-06
"1398",1.96454535805746e-06
"1399",4.08182210032138e-07
"1400",0.0301802729178186
"1401",1.04504334219602e-06
"1402",0.181103425503495
"1403",6.72814052249393e-08
"1404",0.00513252869241776
"1405",0.0310815132176514
"1406",0.0855917301820061
"1407",0
"1408",0.00729589538880582
"1409",0.769859007582415
"1410",0.908497988185529
"1411",2.32221797347165e-10
"1412",0.598781407423128
"1413",0
"1414",0.0166255700799194
"1415",0.00498451776668274
"1416",0.289625619521681
"1417",0.0220286296333558
"1418",0.119117199138229
"1419",0.00635512215952783
"1420",0.020303610091007
"1421",0.302944465430514
"1422",0.154450001032435
"1423",0.00548924902686565
"1424",0.0448995036374336
"1425",0.0237401855633866
"1426",0.000386549185538043
"1427",0.0734127053656575
"1428",1.02140518265514e-14
"1429",0
"1430",1.11022302462516e-15
"1431",1.97729610462716e-11
"1432",2.97664465298553e-08
"1433",2.39540133563088e-05
"1434",0.213140194519262
"1435",0.0172735517618452
"1436",0.124941032446581
"1437",4.75570513081003e-06
"1438",0.0316978848122347
"1439",0.174350246443199
"1440",0.0276964686522543
"1441",0
"1442",7.68496377645533e-13
"1443",0.0294241210260965
"1444",0.0167397858445337
"1445",0.0495982945181873
"1446",0.0277180074929315
"1447",0
"1448",0.000136577656074888
"1449",0.000193074648479619
"1450",0.0135353204621588
"1451",0.0161791918673787
"1452",0.00137654575646273
"1453",0.290261177965642
"1454",2.99299310024814e-06
"1455",0.000313001192826623
"1456",2.02271754183858e-05
"1457",0
"1458",0.0156679263131773
"1459",0.737131447101056
"1460",0.208206613703741
"1461",0.11385726255235
"1462",0.000507894037465317
"1463",0
"1464",0.00441118175086941
"1465",0.683854542955363
"1466",0.00112651965258181
"1467",0
"1468",0.0276171087221708
"1469",0.00333779551854363
"1470",1.00950612318407e-05
"1471",0.869528951356577
"1472",0.277926413056998
"1473",4.70585606926477e-07
"1474",0.0119935332111154
"1475",0.0729816422200971
"1476",7.74935671188359e-14
"1477",0.00376258562924292
"1478",0.191849450889527
"1479",0.0178453029880596
"1480",0.00135335036461004
"1481",0.120411998523812
"1482",0.991725144475702
"1483",0.157617351364768
"1484",2.01110121555992e-07
"1485",0.000136083565305034
"1486",2.15126210734162e-07
"1487",0.000136691090935503
"1488",6.89800473273605e-05
"1489",0.721612363041481
"1490",0.00242795126445172
"1491",0.0147183448584814
"1492",0.0843477263079957
"1493",0.404477372752448
"1494",0.97887976518342
"1495",1.99840144432528e-15
"1496",0
"1497",0.40372342048632
"1498",0.674788883972242
"1499",0.499446171797597
"1500",1.43979182274379e-05
"1501",0.00771724828562581
"1502",0
"1503",0.00135210862827484
"1504",0.0472171091697702
"1505",1.11022302462516e-16
"1506",0
"1507",0
"1508",0.0361836089307096
"1509",0.181945825713643
"1510",0.0193219706701369
"1511",1.86567118238834e-05
"1512",0.0214187418529344
"1513",0.0009507339851339
"1514",0.00123482114553686
"1515",0.00174517795500595
"1516",9.50297618373952e-10
"1517",1.05093462954287e-06
"1518",0.00291709108516702
"1519",0.0627712898987024
"1520",2.25529077269027e-05
"1521",0.00281939730737657
"1522",0.0597027234635368
"1523",0.0118761992201925
"1524",4.62352373165054e-07
"1525",0.00167977985436452
"1526",6.75792755089333e-13
"1527",0
"1528",0.00419727600533959
"1529",5.13555437064994e-08
"1530",0.147130685720174
"1531",0.101106748712614
"1532",0.230755582501173
"1533",0.00633781460754457
"1534",0.168181550798513
"1535",0.40929645937214
"1536",0.572228675816824
"1537",0.149135348255814
"1538",0.972485695812246
"1539",0.290366946214463
"1540",0.0168339362165342
"1541",0.931660659647706
"1542",0.00294445205114713
"1543",0.00216860154159848
"1544",0.435438331945528
"1545",0.151865477866218
"1546",1.05041437770126e-08
"1547",0
"1548",0.00358110490747043
"1549",0.0230218878814608
"1550",0.88551087106766
"1551",0.0517269889011021
"1552",0.0131399333646237
"1553",0.010274107793522
"1554",0.00288922578830952
"1555",0.118913253171496
"1556",0.978618189888054
"1557",0.179233452722537
"1558",0.791466948442139
"1559",0.0702494497492171
"1560",0.0016033829476616
"1561",0.125704965994052
"1562",0.00939054797613192
"1563",0.00417233858433019
"1564",0.00256933488563538
"1565",0.0685128297379107
"1566",0.00348611288630996
"1567",0.0207852016304689
"1568",0.0250663524192715
"1569",0.000751185368008667
"1570",0.968548328274748
"1571",0.592100253659088
"1572",0.0199844846652629
"1573",0.26532029314561
"1574",0.0364504520462986
"1575",0.73649499723607
"1576",0.0624081799175995
"1577",0.374170385421142
"1578",0
"1579",5.83315820246177e-06
"1580",4.30036086740415e-08
"1581",0.194775756115176
"1582",1.95103933009477e-11
"1583",1.11791020884766e-10
"1584",0.942697327166174
"1585",0.896716616855369
"1586",0.00573300017238221
"1587",9.70125911825548e-08
"1588",0
"1589",2.07718672817769e-07
"1590",2.43144393508032e-11
"1591",0
"1592",0.00294216153509452
"1593",4.04812359986462e-05
"1594",4.25741196741214e-07
"1595",6.94922878241577e-07
"1596",0.00775179061563369
"1597",0.0557081833181443
"1598",0.000846218668521415
"1599",3.33066907387547e-16
"1600",0
"1601",0.353268726306157
"1602",1.51434147916962e-05
"1603",0.163485577563894
"1604",9.49118006410288e-09
"1605",0.000324878884589097
"1606",0.550351415939487
"1607",0.000161021263632932
"1608",0.149436751769003
"1609",3.62529620735463e-05
"1610",0.361783180582915
"1611",0.00482396813234598
"1612",0
"1613",0.127504804223027
"1614",0.324621988233047
"1615",0.562535332199173
"1616",0
"1617",0.265400114533061
"1618",0
"1619",0.0262730386118664
"1620",6.12442319081197e-11
"1621",0.00237412845417828
"1622",0.30952428469449
"1623",0.868635496442327
"1624",0.0002805629552316
"1625",0.148944158345097
"1626",0.0745209852659126
"1627",0.0627440146021985
"1628",0.00280300503198827
"1629",0.631289600437606
"1630",0.194501053869583
"1631",0.0238646515728311
"1632",0.385314493332089
"1633",0.553534017228213
"1634",2.0501808528639e-07
"1635",0.00648650735251255
"1636",0.289490675919614
"1637",0.0502240834296959
"1638",0.132742313764859
"1639",0.035922574483554
"1640",0.945303119737655
"1641",0.487495329935089
"1642",0
"1643",0.000166870599955349
"1644",0.13306878281174
"1645",0.00549013896056072
"1646",0.0162889032427815
"1647",0.0253126026957862
"1648",0
"1649",0
"1650",7.63362595357364e-10
"1651",0.00486270767930985
"1652",0.403102595543237
"1653",0
"1654",3.33066907387547e-16
"1655",0.132798708081376
"1656",0.00751897241457811
"1657",0
"1658",0.752437406111286
"1659",0.91413991923172
"1660",0.587325275386526
"1661",1.67622073998785e-08
"1662",0.201220126710291
"1663",0.00129299424537288
"1664",0
"1665",3.64197560998036e-12
"1666",0.0148631340175787
"1667",0.000243074927557374
"1668",0.781410764276865
"1669",0.203196250168753
"1670",0
"1671",0
"1672",0
"1673",9.7934515660425e-06
"1674",0.00525673064726251
"1675",0
"1676",2.89478766513085e-08
"1677",0.00377375158431037
"1678",0.206022025782984
"1679",0.00473113127256131
"1680",0.0248341041127468
"1681",0.919327696080717
"1682",0.117698384208783
"1683",3.92884802837834e-05
"1684",0.401727505671401
"1685",0
"1686",0.000186305025499767
"1687",6.65385601750224e-06
"1688",0.00741468660984346
"1689",0.25604524467309
"1690",0.0120491093349645
"1691",0.658563837658015
"1692",9.10205244508688e-12
"1693",0.727160321858696
"1694",0.0643617211961354
"1695",0.0312261840653707
"1696",0
"1697",0
"1698",0.531064020389981
"1699",5.25127238582002e-07
"1700",0.0183736246883944
"1701",0.0756738477776369
"1702",0.637177099808683
"1703",0
"1704",4.43116987547398e-10
"1705",0
"1706",0.00107741209522816
"1707",5.19715322163661e-05
"1708",0.924310761501803
"1709",0
"1710",7.4377644687873e-05
"1711",0.102347748245737
"1712",0.00328889907069196
"1713",7.7715611723761e-16
"1714",0
"1715",0.00334088999569515
"1716",1.00475183728577e-13
"1717",2.00903558611465e-06
"1718",0.496848035982745
"1719",0.511468087030467
"1720",7.7715611723761e-16
"1721",0
"1722",0.000210872235139714
"1723",1.46183065652394e-12
"1724",0.127822651746677
"1725",0.00851829454263953
"1726",0.169099549780854
"1727",0.0386318717074419
"1728",6.47738690973121e-06
"1729",0.00670187478598183
"1730",0.000540915968579636
"1731",0.451566322215234
"1732",3.93767028072922e-06
"1733",0.000267047717802504
"1734",1.36908262504676e-11
"1735",1.12700893062367e-09
"1736",0.559355616411584
"1737",0.120478639467847
"1738",0.000436848291568759
"1739",0
"1740",0.042544366285398
"1741",0.13082540810983
"1742",0.645581501799034
"1743",3.50505386981226e-06
"1744",0
"1745",0
"1746",8.65052474097183e-12
"1747",0.0139314682136416
"1748",0.00021276108614543
"1749",0.0286640462089821
"1750",1.31603397068858e-08
"1751",0.00608405769978071
"1752",0.0227215524979214
"1753",0.00447393168318555
"1754",0
"1755",0.000188796430124261
"1756",5.29503031421186e-08
"1757",6.23301410485055e-12
"1758",1.46171963422148e-12
"1759",1.02607589091974e-10
"1760",0
"1761",0.00561925061372093
"1762",3.64341019913894e-05
"1763",0.00389867164458002
"1764",0.0110128716579393
"1765",0
"1766",0
"1767",0.261264566380874
"1768",0.0846158802594396
"1769",2.65939727442932e-05
"1770",0.00151198051160562
"1771",0.00171819783613725
"1772",0.000216943228344535
"1773",0.467977324785311
"1774",0.0125748728719209
"1775",0.00372094287853131
"1776",0.457956963783176
"1777",0.000205803988110875
"1778",0.599889226600927
"1779",0.519460934313763
"1780",2.27595720048157e-14
"1781",7.51310125224336e-12
"1782",1.67475702381736e-05
"1783",1.05738183764359e-08
"1784",0.00108173715907411
"1785",1.50404244614322e-10
"1786",0.346455453249603
"1787",0.68132202225871
"1788",0.00126190426023631
"1789",0.113912700029004
"1790",0.000626027799626727
"1791",4.80435913274846e-09
"1792",0
"1793",0.0564889926611949
"1794",1.23216695213646e-05
"1795",0.432904129444491
"1796",0.0521377731614054
"1797",0.953966982119065
"1798",0
"1799",0.475659974751263
"1800",0.412543171036639
"1801",7.37188088351104e-14
"1802",0.136094087481293
"1803",0.465222660337972
"1804",3.1641356201817e-14
"1805",2.36044138159919e-05
"1806",0.0563399686289998
"1807",0.697500336986041
"1808",0.00117815081690331
"1809",2.25264251696444e-13
"1810",0.000344469205717512
"1811",0.974370032464237
"1812",0.0254126404713763
"1813",0
"1814",0
"1815",0
"1816",2.1659671174401e-06
"1817",0.00217234034794622
"1818",9.91907401859393e-06
"1819",0
"1820",0
"1821",0
"1822",2.07611705604904e-14
"1823",0.127394238128029
"1824",0.00749041250175286
"1825",1.76165061427369e-08
"1826",1.40067087999185e-05
"1827",1.1408329836371e-09
"1828",0
"1829",0.126065977263224
"1830",1.99840144432528e-15
"1831",0
"1832",0.8243393671315
"1833",0.0138165059883784
"1834",0.0261988707336623
"1835",8.81327233415163e-11
"1836",0.513732717787613
"1837",0.0422408601807882
"1838",1.06521458320685e-11
"1839",0
"1840",0.136171157488035
"1841",0.0786406462805895
"1842",0.0477623776443629
"1843",0.0246823095584519
"1844",0.0136943334991597
"1845",0
"1846",1.90706150871023e-09
"1847",0
"1848",0
"1849",0
"1850",2.37081445403353e-05
"1851",0.00870846816033688
"1852",1.35380595622792e-12
"1853",0.0136550887403146
"1854",0
"1855",0.00163849347245715
"1856",0.919343671671822
"1857",0.0143337891403191
"1858",0.055601335869037
"1859",0
"1860",1.44395828627353e-10
"1861",0.000895623099665177
"1862",1.65464254520131e-08
"1863",0
"1864",0.0295172028104649
"1865",0.553540218403001
"1866",5.09159381323343e-12
"1867",0.163223069289592
"1868",1.44107501385271e-05
"1869",0.000717776097189371
"1870",0.146311316681358
"1871",0.000938148388370141
"1872",0.0185177582875106
"1873",4.44665877485928e-06
"1874",2.59281485170959e-12
"1875",0
"1876",0.169037879417236
"1877",0
"1878",1.12942988295117e-12
"1879",0.466955691330431
"1880",0.000129613710422638
"1881",0.0411967338252004
"1882",0.513528647464146
"1883",0.0017438551946467
"1884",0
"1885",3.09856784008744e-07
"1886",0.0177216886603583
"1887",3.59712259978551e-14
"1888",0.101449128401111
"1889",0.00441502147053263
"1890",8.94850562094263e-07
"1891",0.473410725937351
"1892",3.3901684146187e-05
"1893",0.169367362592
"1894",0.525166830565256
"1895",7.99962208756222e-05
"1896",3.22857296453094e-11
"1897",0
"1898",0
"1899",0
"1900",0.928896626437652
"1901",2.13890835535357e-05
"1902",0
"1903",0.118023896318971
"1904",0.100456616217894
"1905",7.02678439190585e-06
"1906",5.7429225652772e-06
"1907",0.121823945115062
"1908",0.52091499103375
"1909",0
"1910",9.19342380001353e-12
"1911",0.000314954780650245
"1912",0.00039872150528153
"1913",0
"1914",5.85573552647212e-07
"1915",0.00241315861924785
"1916",1.24344978758018e-14
"1917",0
"1918",0.53535001833035
"1919",0.621985256931639
"1920",0.181121696790064
"1921",0
"1922",0.900817712532144
"1923",0.0244964879368722
"1924",0.838182262705801
"1925",0.561008901708117
"1926",0.568476138902333
"1927",0.831764965300399
"1928",0.441636823188897
"1929",1.12880356857303e-05
"1930",0.605562356030381
"1931",0.737194896705346
"1932",0.987219666542398
"1933",0.237478679318646
"1934",0.250737894256628
"1935",0.798014475774579
"1936",0.426298286304524
"1937",0
"1938",0.354591625133267
"1939",0.944034067133088
"1940",0.358276981505483
"1941",0.0423630882465629
"1942",0.423689888725104
"1943",0.208650141228942
"1944",0.63170968066145
"1945",4.40765898890305e-07
"1946",0.000146105146155207
"1947",3.17383763714929e-09
"1948",0.0777555370949008
"1949",0.452810656864046
"1950",5.74440606193605e-10
"1951",0.768144842060875
"1952",0.343809242719606
"1953",0.0899044814181977
"1954",0.264210762496419
"1955",0.0018878283328978
"1956",0
"1957",0.0192416905375001
"1958",0.837113075247303
"1959",0.825029658292221
"1960",0.564697396748587
"1961",0.602096555180066
"1962",0.798839084491346
"1963",0.710168788078383
"1964",0
"1965",0
"1966",0
"1967",0
"1968",0.128694817955274
"1969",0.341913376572912
"1970",0.639446448352637
"1971",0.00146182755370772
"1972",0.88073847862575
"1973",0.00225225617221658
"1974",0
"1975",0.984439227337198
"1976",0.944795116477329
"1977",0.0582759754313842
"1978",0.628855314296716
"1979",0.734104740276614
"1980",0.0138900714985761
"1981",0.371003214583637
"1982",0.954459250433189
"1983",0.0839283338674768
"1984",0.830565869143643
"1985",0.0986188298540848
"1986",3.2113927805888e-07
"1987",0.0168824347217881
"1988",0.181446099614774
"1989",0.153765146135366
"1990",0.237378701799758
"1991",0.985522210195665
"1992",0.906741036627856
"1993",0.647230568512549
"1994",0.799667406740713
"1995",0.707555750957683
"1996",0.876907133192173
"1997",0.794779264897206
"1998",3.13000040330635e-08
"1999",0.873336971123506
"2000",0.00503208499739827
"2001",0
"2002",0
"2003",0.540356195165683
"2004",0.525397161626205
"2005",0.957297176241097
"2006",0.272235382616265
"2007",0
"2008",0
"2009",5.05373520809371e-13
"2010",0.0997541688113665
"2011",0.421982947328116
"2012",0.88747872109519
"2013",0.812594586106792
"2014",0
"2015",0
"2016",0.166442649015109
"2017",0.914325496188651
"2018",0.46455540673069
"2019",0.030806494670746
"2020",0.00967293076307474
"2021",0.935351939177095
"2022",1.16906484493029e-13
"2023",9.53303069817224e-09
"2024",0
"2025",0
"2026",0.438591037184596
"2027",0.48824322724606
"2028",0.428897231842402
"2029",0
"2030",1.0932489384663e-05
"2031",0.0563912842174319
"2032",0.547314155808128
"2033",0.00290229376815532
"2034",0.960581746063461
"2035",0
"2036",0
"2037",0
"2038",0
"2039",0.725437124096641
"2040",0.0975467748282841
"2041",0.884750183176204
"2042",0
"2043",0.227068322329745
"2044",0.975509472217243
"2045",9.30366894635881e-14
"2046",3.99680288865056e-15
"2047",1.4299672557172e-13
"2048",0
"2049",0.504223184085901
"2050",0.787141949853929
"2051",0.250817635823613
"2052",0.806732238888782
"2053",0
"2054",0.440465781811501
"2055",0.682724444173115
"2056",0.864732247683769
"2057",0
"2058",0
"2059",6.14964745793145e-11
"2060",0
"2061",0
"2062",0
"2063",0
"2064",0
"2065",0.886382357598668
"2066",0
"2067",0.00824322635672337
"2068",0.343196040738426
"2069",0.117261320992445
"2070",0.377441184331283
"2071",2.43536382171783e-08
"2072",0
"2073",0.000782537366843195
"2074",0.00163840946685379
"2075",0.771165204643836
"2076",0
"2077",0
"2078",7.3517965937242e-06
"2079",3.62952137822337e-06
"2080",3.59956064954758e-10
"2081",0.000845064302597898
"2082",2.64931965788806e-05
"2083",0.000185730962936392
"2084",1.88737914186277e-15
"2085",0.154532480843267
"2086",0.0206558237417848
"2087",0.00882010987608994
"2088",6.22603102240493e-06
"2089",0.0553732592176837
"2090",0.00906096313571725
"2091",0.00110242238664238
"2092",0.00053645475929176
"2093",0.403729481988022
"2094",0.26082725694351
"2095",0.287376745791745
"2096",0.145395357654797
"2097",0.179707606952425
"2098",0.704054751292457
"2099",0.534574177105503
"2100",0.116405280894401
"2101",0.551795178180383
"2102",0
"2103",0.231136021396451
"2104",0.308800676093664
"2105",0.0777359667243132
"2106",0
"2107",0.154611578033102
"2108",0.414056472817336
"2109",0
"2110",0
"2111",3.00269721053015e-05
"2112",0.511169128342004
"2113",0.272328135267608
"2114",0.101774899299311
"2115",3.24151816499807e-12
"2116",0.000369577218460204
"2117",0.868418592692235
"2118",1.23278399266624e-07
"2119",0.162015351712872
"2120",1.9479118318344e-09
"2121",0.0339008665360863
"2122",0.0440193638016596
"2123",0
"2124",0
"2125",0.0310302740027057
"2126",0
"2127",0.121486828767916
"2128",0.108313912727386
"2129",0.00512953236720104
"2130",0.00328939048391719
"2131",0.197627543954933
"2132",0.170727788018292
"2133",0.216179666392982
"2134",1.75150194348106e-09
"2135",2.26352544596686e-07
"2136",2.53018717089049e-08
"2137",0.163645273543127
"2138",0.00930439379828196
"2139",0.0012505428552354
"2140",0.321297426565606
"2141",7.93698440304524e-13
"2142",1.11022302462516e-15
"2143",0
"2144",1.02691299908031e-10
"2145",1.28009891231518e-06
"2146",8.99991192682137e-11
"2147",6.15548723104098e-10
"2148",9.88682401281693e-07
"2149",1.71516134628291e-11
"2150",5.70692846424414e-07
"2151",2.88752530164249e-06
"2152",0.000240516811504499
"2153",0.000424884902150757
"2154",8.99280649946377e-15
"2155",7.9944162401091e-11
"2156",3.65263375101677e-14
"2157",5.67884628210891e-11
"2158",8.92071971847486e-11
"2159",0
"2160",0
"2161",0
"2162",0
"2163",0
"2164",0
"2165",0
"2166",1.46321466054644e-09
"2167",2.83037882020665e-09
"2168",0
"2169",0.000659728538944804
"2170",0
"2171",0.000987423982923508
"2172",0.000195386141426224
"2173",0.00129741531270178
"2174",6.78835763712193e-07
"2175",4.27699303751083e-08
"2176",0.000698724572040121
"2177",0.000270516931712872
"2178",1.63261955508087e-05
"2179",2.35624875166707e-09
"2180",1.92402326626429e-07
"2181",1.28700538448712e-07
"2182",0.263952887929181
"2183",1.29525279390919e-11
"2184",0.000123070774145861
"2185",0.000218099411880446
"2186",0.48281488544758
"2187",0.0796614054884888
"2188",0.000521874422921509
"2189",0.00282456789373486
"2190",0.0665451151250299
"2191",0
"2192",0
"2193",0.180136296388881
"2194",0.992570038532562
"2195",0.522062601914469
"2196",0.136450495035325
"2197",5.32796029517613e-13
"2198",0
"2199",3.77254788425097e-05
"2200",0.941945288427782
"2201",0
"2202",0.00012951842258313
"2203",0.0363841887740296
"2204",1.11022302462516e-16
"2205",0.920103586936145
"2206",0.735214486322262
"2207",0.953794935103735
"2208",2.903333129467e-11
"2209",0.0244389523150483
"2210",0.249158052395691
"2211",0.0007721365065676
"2212",1.37773126240859e-11
"2213",0.153155343652823
"2214",0.000878566260136826
"2215",0.417072220454368
"2216",0
"2217",0
"2218",0.527428719478142
"2219",0
"2220",0.348462760489009
"2221",0.00101143868139963
"2222",0.00208303198082238
"2223",0.157510108355215
"2224",0.170397421438803
"2225",0.249925914051276
"2226",0.107477765906133
"2227",0.0103907446540937
"2228",0.0172044333225874
"2229",0.00599481506156274
"2230",0.0435615092966744
"2231",0.0116909499665052
"2232",0.78413613933583
"2233",3.55796016093812e-06
"2234",4.06729574908837e-07
"2235",0.0230055049296644
"2236",9.2420277037375e-05
"2237",0.47443031569163
"2238",0.50994925812056
"2239",0.361047270924619
"2240",0.0492628171131299
"2241",0.459105574006511
"2242",0
"2243",0.394280044400299
"2244",0.935181632075083
"2245",0.356227316250821
"2246",0
"2247",0.00390140296302699
"2248",0.435607041481149
"2249",0.204877934234245
"2250",0.999985986206973
"2251",0.826739396289435
"2252",0.017894153540733
"2253",0.00286690887552754
"2254",0.15579601986457
"2255",0.201188151153312
"2256",5.95004531200871e-08
"2257",0.0247541488109363
"2258",0.244553107128391
"2259",0.987211439446802
"2260",0.952008965100074
"2261",0.895415278431695
"2262",1.83806846187906e-07
"2263",0.0941130101159584
"2264",0
"2265",0.0259792034031608
"2266",0.00502976050961568
"2267",3.4724660228358e-06
"2268",0.0190885596983417
"2269",0.101308554055299
"2270",0.764952876237384
"2271",0.000194770987590354
"2272",0.911173399471752
"2273",0.668860868513014
"2274",0.0795577376170361
"2275",0.428374746295296
"2276",0.67113132300038
"2277",0.797529900227955
"2278",0.25354693485147
"2279",0.102946817470311
"2280",0.456089083246681
"2281",0.26805362605883
"2282",0.35621395474915
"2283",0.00410384585719559
"2284",0.099763525157297
"2285",0.0411610307508659
"2286",0.000397599406834592
"2287",0.0114389392210251
"2288",0.000125043809382719
"2289",0.0282036564007992
"2290",6.93556323483335e-13
"2291",0.0041234476370966
"2292",0.0487402347371109
"2293",0.0259101247960342
"2294",0
"2295",0.174661863310195
"2296",0.199143854070525
"2297",0.0291830014670837
"2298",0.217443280048148
"2299",0.0170356489140956
"2300",0.00495371344863937
"2301",0.000980514531815802
"2302",0.135761562965389
"2303",1.18866601106493e-06
"2304",0
"2305",5.98068667617691e-05
"2306",0.0454302123939587
"2307",0
"2308",0.265737668699734
"2309",0.167493443835723
"2310",0.633021616006783
"2311",0.000117206386475499
"2312",2.13083663773705e-05
"2313",0.154178309906094
"2314",0.00430161264673845
"2315",0.45364751680824
"2316",3.09409964982521e-07
"2317",0.114959348299783
"2318",0.549896901123051
"2319",0.170843267409822
"2320",0.854971643085587
"2321",0.383406682434152
"2322",0.0330685155240481
"2323",0.318379052586415
"2324",0.0151664563028172
"2325",0.126192363622365
"2326",0.00394743165261346
"2327",0.446603197121891
"2328",3.05374947551229e-10
"2329",0.174202254955348
"2330",0.0594689976868309
"2331",0.109636206220249
"2332",0.000113574229164137
"2333",0.0389843406267423
"2334",0.458622825618234
"2335",0
"2336",0.0863297033498533
"2337",0.126180276281402
"2338",0.0755192299465289
"2339",0.321633925342241
"2340",0.000443743503104832
"2341",0.001666143914547
"2342",0.35980312930022
"2343",0.0116462535510148
"2344",0.0758558339893809
"2345",6.93087140113402e-06
"2346",0.0357428335766069
"2347",0.00217698749285078
"2348",0.0634638436047478
"2349",6.33769476865442e-06
"2350",0.154059802489414
"2351",0.179167537947113
"2352",0.468663676603423
"2353",0.171636964176792
"2354",0.629549474836286
"2355",0
"2356",0.15977990820931
"2357",0.159840711319483
"2358",0.000806572666112171
"2359",0.113609249253866
"2360",0.0215332162137031
"2361",0.0206582748054657
"2362",0.132207312965405
"2363",2.71383893968302e-06
"2364",0.00266890682778864
"2365",0.10950893394286
"2366",0.0288173703183918
"2367",0
"2368",3.10862446895044e-15
"2369",0.116981250748439
"2370",0.00305069985185269
"2371",0.095772315283589
"2372",0
"2373",4.01346723836182e-05
"2374",0.559012379304344
"2375",0.953478639830797
"2376",0.832642936989453
"2377",0.281400775282538
"2378",0.724988735285501
"2379",0.247233531886176
"2380",0.00182857707712458
"2381",0
"2382",0.0052867918218098
"2383",0.00420065691111382
"2384",2.98150393263086e-11
"2385",0.408824294364825
"2386",0.567149722923416
"2387",0.0703292625176334
"2388",4.11107308369019e-05
"2389",4.99511624063587e-07
"2390",0.00176036945233649
"2391",0.0765741073459717
"2392",0.192429278498205
"2393",0
"2394",0.00307869765818281
"2395",0.156132805698087
"2396",0.00855372970098001
"2397",0.00898356848929316
"2398",0.559581596764837
"2399",0.183028742974205
"2400",0
"2401",0.0673254600665104
"2402",0.00098063709439089
"2403",0.0775085173785128
"2404",0
"2405",0.1383648670937
"2406",0.203869686042311
"2407",0.0306788182098954
"2408",0.0241880857469693
"2409",0.045862561782421
"2410",0.563929759446455
"2411",0.0308777423818777
"2412",0.0507576418364744
"2413",0.0297029443816782
"2414",0.0299799579826486
"2415",0.000170283026055484
"2416",1.71504774160169e-07
"2417",1.69823771045685e-07
"2418",0.0436393640160988
"2419",0.0647350592302729
"2420",0.907053041104541
"2421",1.58691259414256e-05
"2422",0.00214738827004968
"2423",0.0906161996612117
"2424",0.815534205221424
"2425",3.96661024305578e-05
"2426",0
"2427",1.40038077391935e-05
"2428",0.719588064201221
"2429",0.448749959953849
"2430",0.0216089973012755
"2431",0.037987959123421
"2432",0
"2433",3.99574262566205e-10
"2434",0.504499183555975
"2435",0.561994290177046
"2436",0.0159962848808715
"2437",0
"2438",0.60019675578026
"2439",0
"2440",1.48325796089921e-13
"2441",2.59792187762287e-12
"2442",0
"2443",4.92082297132157e-09
"2444",0
"2445",0
"2446",1.48225876017705e-12
"2447",0.390125725901651
"2448",0
"2449",0.280302555418893
"2450",3.5139745465651e-06
"2451",0
"2452",4.92417506769982e-09
"2453",0
"2454",1.19750098726001e-09
"2455",0.110701505742042
"2456",0
"2457",0.00288963565933498
"2458",0
"2459",0
"2460",1.13644395421941e-05
"2461",0.0252594769455953
"2462",0.582601763755947
"2463",0.229659661176445
"2464",1.92870653303867e-06
"2465",0.110000563013683
"2466",0
"2467",0
"2468",0.101236915379936
"2469",2.97230969836804e-08
"2470",0.387264106425321
"2471",0.946322662117835
"2472",0.587894028017259
"2473",0.690655268645929
"2474",0.207749747152454
"2475",4.51178469140778e-07
"2476",0.000716384582230445
"2477",1.05092601010437e-06
"2478",0
"2479",0
"2480",0
"2481",0
"2482",0.125024260896547
"2483",0.0214616078813037
"2484",0.16634813653938
"2485",0.0445973680415984
"2486",0.00466456563392093
"2487",1.70001690613653e-07
"2488",0.160300766820684
"2489",0.586501863068154
"2490",0.079780352563281
"2491",0.0666422783838079
"2492",0
"2493",0
"2494",0
"2495",0.608578506321512
"2496",0.125569651101225
"2497",0.588242799138322
"2498",0.0339513270217348
"2499",0.751717535588745
"2500",0.813640365221164
"2501",0
"2502",0
"2503",0
"2504",0
"2505",0.23353426027378
"2506",3.90615317868992e-11
"2507",0.000118442709480138
"2508",0.176544280850995
"2509",0.58144861109531
"2510",0.165234851401836
"2511",0.27999308612118
"2512",0.449779904306513
"2513",0.101664617811224
"2514",0
"2515",0
"2516",0
"2517",0.0442358816093995
"2518",0.587341219335679
"2519",0.35600869392164
"2520",2.45101773932443e-05
"2521",1.24407680893723e-05
"2522",0.0175384564620318
"2523",1.06407867206393e-06
"2524",0.0555163461696772
"2525",0
"2526",0.0605085168071274
"2527",0.000237038122427702
"2528",0.311399048423882
"2529",0.0923249527233759
"2530",0.00597369622165422
"2531",0.131684668061047
"2532",0.751604959428988
"2533",4.99773198825437e-07
"2534",0
"2535",0
"2536",3.61569796325512e-09
"2537",0
"2538",0
"2539",0
"2540",0
"2541",0.760621580966931
"2542",0.00762394418854351
"2543",5.00668213554434e-08
"2544",0
"2545",0
"2546",0.00464358355067773
"2547",3.35295491371568e-09
"2548",0.00823456068109507
"2549",0.890654921915451
"2550",0.136187592510125
"2551",0.365286407050252
"2552",0.749904960200789
"2553",0.855487703477683
"2554",0.216001747381687
"2555",0.835521826476972
"2556",0
"2557",0.160838737725483
"2558",0.951399863490248
"2559",0.0976839146160853
"2560",0.00238611882158313
"2561",0.0383778487602702
"2562",0.01452542171327
"2563",0
"2564",0
"2565",0.0056255178070137
"2566",0.353841130746833
"2567",0.0121729578128622
"2568",0.0651938854654621
"2569",0.20387624686024
"2570",0.259053993248269
"2571",2.55351295663786e-15
"2572",0.428899377294702
"2573",0.0094806183023024
"2574",0.947228518571988
"2575",3.85728859964019e-09
"2576",0
"2577",2.03670871279371e-08
"2578",0.00827272019636194
"2579",0.380771454152889
"2580",0.502435840984706
"2581",0
"2582",0
"2583",0.544110031667073
"2584",0.511897483941061
"2585",0.0165870773729877
"2586",9.31316453911535e-06
"2587",0.486438377237844
"2588",0.00123605384731118
"2589",0.923306873772957
"2590",0.359240141510928
"2591",0.857873350597016
"2592",0.0224997945163053
"2593",0.142862207146509
"2594",0
"2595",0
"2596",0.000763609789669939
"2597",0.141103224812572
"2598",0
"2599",0
"2600",6.47348841198436e-12
"2601",0.000306014400411669
"2602",3.41890293853453e-10
"2603",0
"2604",7.7715611723761e-16
"2605",3.02699316723221e-08
"2606",0
"2607",0.245110528681169
"2608",0.591997320936901
"2609",0.0116565403435031
"2610",0.105329354659017
"2611",0.0357149486311925
"2612",0.0167779522681195
"2613",0.00111650721886114
"2614",0.00316632318343446
"2615",0.00865615897904903
"2616",3.69874464084541e-05
"2617",1.98621230573792e-10
"2618",0.028535676974295
"2619",0.00646497003103252
"2620",2.4395475760608e-06
"2621",0.000264448728259148
"2622",0.989881808466284
"2623",0.937973872527573
"2624",0.00890140399511896
"2625",0.674185523023981
"2626",0.154225999977441
"2627",0.0549523745247255
"2628",0.00363759961618282
"2629",6.68959580363282e-06
"2630",0
"2631",0.0625355413060754
"2632",0.190629852118979
"2633",0.0360896278342028
"2634",0.241110358066079
"2635",0.0019951356357415
"2636",0.0059754484947413
"2637",1.32059284885244e-06
"2638",0.0380355905829873
"2639",0.0379938213168611
"2640",0.00661315618760228
"2641",0.0327730523279535
"2642",3.18334247850771e-12
"2643",0
"2644",0
"2645",0.00038716946709938
"2646",0
"2647",0
"2648",9.63673585374636e-14
"2649",0.0609888623883519
"2650",0
"2651",2.18886536673679e-08
"2652",0
"2653",0
"2654",9.47156797437287e-11
"2655",0.000127794294385808
"2656",0.523315459161734
"2657",0
"2658",0.160181326098953
"2659",0
"2660",0.0528643465010381
"2661",1.11022302462516e-16
"2662",0
"2663",8.04292410450103e-10
"2664",2.84683387974383e-12
"2665",0.0877946056969545
"2666",0.121330238814226
"2667",0.836297427414524
"2668",0.446260572301649
"2669",1.67914522903878e-05
"2670",0.0102663594262929
"2671",0.35153204168105
"2672",0.0239885455676131
"2673",0.0502068142327816
"2674",0.345712488960326
"2675",6.26245580059859e-07
"2676",8.67683625949134e-07
"2677",4.65400053817344e-06
"2678",7.7340761783784e-07
"2679",3.22143523301399e-07
"2680",0
"2681",0.000184677314153614
"2682",0.000360158777605868
"2683",2.68396052137687e-05
"2684",2.49187337431067e-11
"2685",0.0664309021035111
"2686",0.0507754010782481
"2687",0
"2688",1.11022302462516e-16
"2689",0.000754047006524594
"2690",0.155266884864641
"2691",0.0909766596107353
"2692",4.99869870786984e-05
"2693",1.66039975546539e-07
"2694",0.000139311279920729
"2695",0.000569338925280882
"2696",0.0110661943804803
"2697",6.2340920977566e-05
"2698",3.75999231749802e-12
"2699",9.06733577110685e-11
"2700",0.00819049947632844
"2701",0.722415135388694
"2702",0.114267194416481
"2703",0
"2704",3.25738214690396e-06
"2705",0.0287668083033878
"2706",1.64383576184424e-06
"2707",0
"2708",0.00419384008473966
"2709",7.47743272855317e-08
"2710",0.230431898036636
"2711",0.000905022458929983
"2712",8.84863647855338e-05
"2713",1.65423230669148e-14
"2714",1.40500756694584e-05
"2715",0.000473797245054808
"2716",0.00543305450227038
"2717",0.0831520984775121
"2718",0
"2719",0
"2720",0.344069327678513
"2721",0.205762125414679
"2722",0.000104578966069968
"2723",1.8598789175428e-11
"2724",0.00112264105052073
"2725",0.00287235985817147
"2726",0.772702592581488
"2727",0
"2728",2.19824158875781e-14
"2729",0.216440848329186
"2730",0.0763142550748653
"2731",0.0539181019877004
"2732",0.00129492633641104
"2733",0.000260918580603509
"2734",0.00113446076202772
"2735",0.00458663341215249
"2736",0.0807223504239365
"2737",0
"2738",0.0144090512264284
"2739",0.0831809532427253
"2740",7.18738402127883e-11
"2741",1.6334489316705e-11
"2742",2.22294746383689e-05
"2743",0.000263797752660722
"2744",0
"2745",0.0107250937545911
"2746",1.7942953678407e-08
"2747",0.000105720274034771
"2748",1.27990944509548e-08
"2749",0.912726590209376
"2750",0
"2751",0.0171497284183876
"2752",0.062066537798369
"2753",0.389311494237313
"2754",2.22044604925031e-15
"2755",1.11022302462516e-16
"2756",3.3625560236894e-05
"2757",0.0122004416236573
"2758",6.30894513631297e-07
"2759",0.799651014308336
"2760",1.97559419061744e-05
"2761",0.00531516867359827
"2762",0.00121336151455709
"2763",0.0242904469704858
"2764",0
"2765",0.531062116713714
"2766",1.5106515938168e-07
"2767",0.000951908421205849
"2768",0.195596952517447
"2769",0.466729027601486
"2770",0.569551898210168
"2771",0.0772336123329922
"2772",0.0120158057294305
"2773",0.48299355791272
"2774",0.000539848178443325
"2775",0.466335126766142
"2776",0.310945119881883
"2777",0.756777215454534
"2778",0.0882266299334629
"2779",0
"2780",0
"2781",0.106486379385754
"2782",0.907562843726627
"2783",0
"2784",4.83779192927969e-07
"2785",0.0104426578151772
"2786",0.00236905428385348
"2787",0.256807414014457
"2788",0.0513643494777639
"2789",0.381863571011312
"2790",0.363716618634965
"2791",0.413676163256091
"2792",0.022689698214769
"2793",1.66382848609814e-08
"2794",0.0454826624431054
"2795",0.233922930970419
"2796",0.829741811968681
"2797",0.509486272597718
"2798",0.000115423965998729
"2799",0.00372687526500137
"2800",5.34093103077282e-10
"2801",1.10578213252666e-13
"2802",0.0518378285669288
"2803",0.976395535888049
"2804",5.304645611659e-13
"2805",0.978666321850453
"2806",0.999999383031801
"2807",1.13164767050478e-05
"2808",0.893683705904391
"2809",0.379926691971505
"2810",0.00951624010260599
"2811",0.927772368376344
"2812",0.965259224669888
"2813",3.69704267200177e-14
"2814",0
"2815",0
"2816",0
"2817",4.4894059925138e-07
"2818",0.0610995460739411
"2819",0.133682300663268
"2820",0.673804297641032
"2821",0
"2822",0.0030335178694757
"2823",0.116632121076414
"2824",0.47427506504166
"2825",2.18519258243788e-09
"2826",0.000281689438930921
"2827",0.321464925551815
"2828",0.0217711246595907
"2829",0
"2830",0
"2831",0
"2832",0
"2833",0
