"","x"
"1",0.000459706471481303
"2",0
"3",0
"4",0
"5",0.106559748510565
"6",0
"7",0.130129885685327
"8",0.00189805470775761
"9",3.07087688611318e-13
"10",0.00561144854162476
"11",0.752299413883551
"12",0
"13",4.56970778328625e-07
"14",0.998257758948492
"15",0
"16",0
"17",0
"18",0.162030895793886
"19",0.328909338704635
"20",0.128210071281214
"21",0.0725424606354633
"22",0.0800436164554992
"23",0.0340961697226478
"24",0
"25",0.0232165186436786
"26",4.75175454539567e-14
"27",0
"28",0
"29",0
"30",0.000239896116265403
"31",0
"32",0
"33",0
"34",0
"35",0.352215710430367
"36",0.00788774241708534
"37",0.00149636982623891
"38",0.000189116258801025
"39",2.2588977639515e-06
"40",0
"41",0.731599332813437
"42",0.00180959951003001
"43",0.0874210077897974
"44",0
"45",0
"46",0
"47",0.00762955064935111
"48",0.00379166042605517
"49",0.031072022648967
"50",0.62628506946926
"51",0.804671781278693
"52",0
"53",0.820110906580708
"54",2.13600248599732e-11
"55",0.67394999393234
"56",0.86103304032557
"57",0.469651548438443
"58",0
"59",0.331060933673624
"60",0.101964249064747
"61",0.264876724968703
"62",0.0912999214255894
"63",0.0371731941239387
"64",0.0863295851254308
"65",0
"66",0.142755442681551
"67",0.14180750905477
"68",1.33226762955019e-14
"69",0.437113678596181
"70",0.514547429303645
"71",0.614115606867237
"72",0.00511823199709549
"73",5.88418203051333e-13
"74",0.754960067039788
"75",0.00639617801442638
"76",3.29874172422251e-09
"77",4.15359639349688e-07
"78",0.869888358119949
"79",0.0162609805110854
"80",0.000123709771514324
"81",0
"82",0
"83",0.233558379603634
"84",5.25605609369428e-07
"85",5.77315972805081e-15
"86",0.052875635775843
"87",0
"88",0.730708186635222
"89",0.700668799761596
"90",0
"91",0.393676920297717
"92",0.58293468322723
"93",0.188245153950592
"94",0.892874642439879
"95",0.249574680049768
"96",0.178528570455572
"97",0.398784141142778
"98",0.386525868443492
"99",0.710295961382582
"100",0.196485906090435
"101",0.902894965983857
"102",0.174038161576615
"103",0.110023622816978
"104",0.11501253577943
"105",0.000314773474653918
"106",0
"107",0.847032725877351
"108",0.0440353994198428
"109",0.0244714054055712
"110",0.470133344832862
"111",0.214280121688653
"112",0.138505454521373
"113",0.0151887873889088
"114",0.013742634329809
"115",3.64701271404755e-07
"116",0.411776536010215
"117",0.0832370364656534
"118",0.293203683395609
"119",9.33559561362429e-05
"120",0
"121",0.126980800981272
"122",2.86876602473285e-08
"123",0
"124",0.680409244465592
"125",0.105102898710287
"126",1.11231313049132e-09
"127",0.46702257500767
"128",0.00506328078707363
"129",0.00279384529457982
"130",0
"131",0.024752396769396
"132",0.262610796694764
"133",0.494635505700701
"134",0.900368999261261
"135",0.55905626698284
"136",0.0390305931192007
"137",0.110835529970349
"138",0.171598731139213
"139",0.268552795150145
"140",0
"141",0
"142",1.25860095678831e-07
"143",0.360276976503403
"144",0.00300082588843487
"145",0
"146",0
"147",0
"148",0.282086564187336
"149",0.883142118722701
"150",0.241021139556878
"151",0.759537075589449
"152",0.424920739853312
"153",0.797629296029301
"154",0.0890430299079649
"155",0.964321003091348
"156",0.61427729790949
"157",0.201407895871184
"158",0.393904070183207
"159",4.88301348189335e-06
"160",0.0364939738147909
"161",0.216992497349944
"162",0.357743155883415
"163",0.239609377703796
"164",0.43796871805045
"165",0.298676584516899
"166",0
"167",0
"168",5.89961416386231e-08
"169",0.00268468315348291
"170",0.00015645500690209
"171",2.11713432578531e-05
"172",3.36397576461422e-13
"173",0
"174",0
"175",6.82710554755772e-11
"176",0
"177",4.9387050005123e-10
"178",0.00073394247692371
"179",0
"180",0
"181",0
"182",0.456834951150648
"183",0.316926417048788
"184",0.00175903982769277
"185",1.88647986121282e-11
"186",0
"187",0.918761709688367
"188",0.201405035271623
"189",0.289682170228346
"190",0.77968538090308
"191",0.260877505722813
"192",0.890731714558009
"193",0.232370118622179
"194",0
"195",0
"196",0
"197",0
"198",0.000255990329027234
"199",1.85346084606852e-05
"200",4.32961100882423e-06
"201",3.57334477008031e-07
"202",0.924200987228798
"203",0.0284771638102408
"204",0
"205",0.214637694955279
"206",0.582815201547682
"207",0.853930613185719
"208",0
"209",0.00174998208675425
"210",0.277541598069595
"211",0.459605886972949
"212",0.0295371712009651
"213",2.22044604925031e-16
"214",0.00798340348978721
"215",1.44740207719263e-06
"216",0.92402906311916
"217",0.0264226039156416
"218",0.391906668443435
"219",0
"220",0
"221",0
"222",0.311775821936928
"223",0.00510943823394827
"224",0.502662028898003
"225",0.155920154959815
"226",0
"227",0.37977927544962
"228",0.364526147958466
"229",0.0499891829279611
"230",0.132812628054505
"231",0
"232",0.363810015584639
"233",0.0143126401814109
"234",0.00594115135347573
"235",0.0961474310412768
"236",0.010708844427531
"237",0.815617621085362
"238",0
"239",0.0700911159897298
"240",0.390348777925355
"241",0.247797922092508
"242",0.494934893918822
"243",2.81655265776948e-09
"244",5.04069897916404e-05
"245",0.768282136392642
"246",0.718139435958173
"247",0.352386857572428
"248",0.752917018647857
"249",0.0141183517637279
"250",0.000793239058553108
"251",0.00121776206313684
"252",0.237902690691443
"253",1.55032148244638e-05
"254",0.145337347508569
"255",0.0151208938267722
"256",0
"257",0.460214060284218
"258",0.954763368800489
"259",0
"260",0
"261",0
"262",0.000315230471065742
"263",0.368123354421378
"264",0.106434094538984
"265",0.00733221404394757
"266",0
"267",0.578971449237418
"268",0.0148164767423766
"269",0.046848476004142
"270",0.383851770722539
"271",0.241832671793265
"272",0
"273",0.10554487855115
"274",0.0577959538232616
"275",0.726599700948879
"276",0.510443895891183
"277",0.0323329371358375
"278",0.34853809633335
"279",0.353306909071649
"280",0.145852270152163
"281",0.575760206188704
"282",0.434155795922083
"283",0.621429202906375
"284",0.67570210542287
"285",0.209277682760182
"286",0.29436080700212
"287",0
"288",0.00904515560978558
"289",0.056012286595454
"290",0.347140201560415
"291",0.340191275166912
"292",0.058306149163586
"293",0.243404248781048
"294",0.0472381713505388
"295",0.0557950506606707
"296",0
"297",0.822678247679189
"298",0.719303223034585
"299",3.75836066868196e-06
"300",0.0906698998182589
"301",0
"302",0
"303",0.594265956757988
"304",0.0374091392077198
"305",6.80072855006042e-05
"306",0.000595569316527156
"307",0.0550645129554634
"308",0.0842882429249328
"309",0.109899765857839
"310",0.754527100689815
"311",0.000743499113399659
"312",0.0272783924048076
"313",0.504766731063412
"314",0.162232161235281
"315",0.211703705537206
"316",0.000267520652699194
"317",0.388476303042711
"318",0.000515659107279021
"319",0.263185206266552
"320",0.684008046776388
"321",0.00368828196680759
"322",0.0129028777832663
"323",7.73687097006537e-05
"324",0
"325",0.699267032475888
"326",0.0612747142381584
"327",0.0677742886701351
"328",0.096370070719535
"329",0.00379415866985466
"330",0.10755248335409
"331",0.14197885447597
"332",0
"333",0.0859938263728517
"334",0.0796527681830784
"335",0.258333920744241
"336",0.805820429973974
"337",0
"338",0.023090112994141
"339",7.23744397745918e-10
"340",0.240229675652467
"341",0.204706121771562
"342",0
"343",0.00599865519825427
"344",0
"345",0.0932767131698036
"346",0.221712593438677
"347",0
"348",0.0445877190093571
"349",0.0760894898563163
"350",0.00171306761318413
"351",0.732003980249944
"352",0.00208741834169102
"353",2.19788402699983e-07
"354",2.33146835171283e-15
"355",0.255294426495669
"356",0.0061520166172564
"357",0.0103671102380619
"358",0.605068996406982
"359",0.453789115988066
"360",0.200078018168442
"361",0.317669292857696
"362",8.35889285566438e-08
"363",0
"364",0
"365",0.0910288266412513
"366",0.44892422688343
"367",0.258359410193938
"368",0.107481470353012
"369",0.000125143508649894
"370",0.0367207389495008
"371",2.79032352779041e-12
"372",2.16112683304459e-11
"373",0.0609648516710307
"374",0.000481378594223703
"375",0.000864129446590423
"376",0.0165513409969561
"377",0.0386316109510594
"378",0.15546899989776
"379",0.0318926545155049
"380",0.00573569477642755
"381",0
"382",0.0012550823985833
"383",0
"384",0.0152782596723118
"385",0
"386",0.0186469593982763
"387",0
"388",0.030562704529424
"389",0.422435242723844
"390",0.000777667669211612
"391",0.0462842408003323
"392",0.0552439461149524
"393",0.321441635283257
"394",4.23840296193134e-10
"395",0.0169768117120451
"396",0.00549785251531776
"397",0.000128026034220574
"398",0.00038362665562286
"399",0.0582488678873622
"400",2.22044604925031e-16
"401",0.422597395636386
"402",0.0557853925729196
"403",0.00241301670470817
"404",0
"405",0
"406",0.466379047681036
"407",4.64636245669503e-05
"408",0.00123291663308045
"409",3.99988770050097e-06
"410",0.409353134879892
"411",0.183326419329492
"412",0.00879531253888655
"413",0.00453311493468656
"414",0.000355596384661871
"415",0.00545309079441547
"416",1.65600866353088e-12
"417",0.358648722587889
"418",5.6058160168293e-05
"419",0.000154290680333569
"420",0
"421",0.0219285288506408
"422",0.256450486118526
"423",0.120696404518317
"424",0.104549353157014
"425",3.41602843488831e-05
"426",0.00348309756954523
"427",0.186722798027882
"428",0
"429",0.0407949443568009
"430",0.162412678788056
"431",0.0312964905044452
"432",0.292775663820723
"433",0.0120963244364054
"434",0
"435",0.169768883068825
"436",0
"437",0.0376707469692898
"438",0.000153677362028204
"439",0.0951075388109484
"440",0
"441",0.000677172599651943
"442",7.56701752702149e-07
"443",8.21565038222616e-15
"444",0.322587760089679
"445",1.15283053643278e-05
"446",0.28148338726815
"447",0.0669102586018399
"448",0
"449",0.717572351046227
"450",0.00373865344609192
"451",0.289934420984397
"452",0.192568420537824
"453",0.0396484788730189
"454",0
"455",0.128306538989035
"456",0
"457",2.91477952885089e-11
"458",0.319549325534553
"459",0.272638904847806
"460",0.809192312754967
"461",0.0144965204912083
"462",0.648882370979023
"463",3.78982832374142e-05
"464",0.832643695160213
"465",0.351408099439075
"466",0.0129169620100953
"467",0.00148669245899669
"468",0
"469",0.231977911355882
"470",0.0524137920182548
"471",0.50129334730664
"472",0.475956316442754
"473",0
"474",0.0279412813345261
"475",0.000125737807949777
"476",0
"477",0.187780800595196
"478",0.0328766636461832
"479",0.00325158112175084
"480",0.00851773303002601
"481",0.0265505790086943
"482",0.511612109406248
"483",0.00290187328917346
"484",0.0194158840096416
"485",0.604387081327925
"486",5.52840609264749e-05
"487",0.027282494382346
"488",0.676818669056208
"489",0.00662168197480906
"490",0.00257382774920256
"491",0.108121595280514
"492",0.0117831727949774
"493",0.0142097389906441
"494",0.184897450198853
"495",0.469811877665581
"496",0.0381055633354568
"497",0.52737991466201
"498",0.00288675853223741
"499",0.524074053464151
"500",1.92268423404585e-12
"501",0.103389097039117
"502",0.00275947214514016
"503",0.00210758357687268
"504",0.484581868849451
"505",0.00620107028691308
"506",8.30964840115023e-06
"507",0.00420556058640709
"508",0
"509",5.58530999228424e-12
"510",0.377801303637527
"511",0.253366141999471
"512",0.103460835750495
"513",1.84347182186073e-07
"514",0.00129616479949368
"515",0
"516",0.160035744611808
"517",0.00604007542709772
"518",0.158473087659549
"519",0.367127357612097
"520",0.0170244217719143
"521",0.000216122098031901
"522",0.0216473638107385
"523",0.150987732442349
"524",1.72605263415448e-11
"525",0.123615952922219
"526",0.00555751533521842
"527",0
"528",0.332896222906707
"529",0.0438273871533784
"530",0.00738293583608007
"531",0.0517713649233464
"532",0.104052503775866
"533",0.143695437700506
"534",0
"535",0.0206400944009353
"536",0.0230121273684094
"537",0.179226393024216
"538",0.247117047720071
"539",0.00584860906807383
"540",2.20191747902776e-05
"541",0
"542",0.157698465600597
"543",0.00292585910829568
"544",0.199975050121202
"545",0.0872712254402856
"546",0.000686436142675384
"547",0.0442622857342807
"548",0.000872099467179366
"549",0.0254223320976129
"550",0.000983193580914254
"551",0.0918131102222739
"552",0.000302987208129601
"553",0.0192992104040274
"554",0
"555",0.00333250769254323
"556",0.0193648510192447
"557",3.40460359201655e-05
"558",1.66533453693773e-15
"559",0.0143896389219578
"560",0.620563003694506
"561",0.538573236243246
"562",0.00358997064444333
"563",0.462067471225023
"564",0.000862313731477604
"565",0
"566",0
"567",1.70344628366292e-05
"568",0.000909764392766466
"569",8.76499240953788e-06
"570",0.000590610056469432
"571",0
"572",0
"573",1.72148751830248e-05
"574",0.000900698184339133
"575",0
"576",0
"577",0
"578",0.00046361486366242
"579",0.00186477493274317
"580",0.214160440720047
"581",0.000230384616971224
"582",0.000157468398345184
"583",1.07454341025104e-06
"584",0.00176537890654516
"585",0.0146027823781467
"586",0.00363274995152063
"587",6.4277282028069e-06
"588",5.3704446393299e-06
"589",0.00215392180275975
"590",0.00902175120181503
"591",0.0622339745915397
"592",0
"593",0.0196068997103908
"594",3.87921672816427e-05
"595",0.000663869842140397
"596",3.44169137633799e-15
"597",2.70504258625959e-06
"598",0.000270656028635519
"599",0.0174732541154806
"600",0
"601",0.313407966856734
"602",8.57853297642208e-06
"603",0.00120696515325669
"604",0.0186636345937798
"605",0.00984012206845564
"606",0
"607",0
"608",0.00243288801045949
"609",0.00848735093778186
"610",0
"611",0
"612",0.00207769735478103
"613",0
"614",0
"615",0
"616",1.13753538810712e-08
"617",0
"618",0
"619",1.64673259472892e-08
"620",0.520916874156571
"621",0.00205141827032074
"622",1.26990603432908e-06
"623",0
"624",1.02482422548178e-09
"625",4.79510552264806e-06
"626",0.149864963372286
"627",0.000119539796662682
"628",0
"629",0.0294059325713713
"630",0.00169584488514485
"631",0.00110293038379983
"632",0.546058125914457
"633",6.54939436017798e-11
"634",0.188658776631187
"635",0
"636",0
"637",0
"638",0
"639",0
"640",0
"641",0
"642",0
"643",0
"644",0
"645",0
"646",0
"647",0
"648",0
"649",0
"650",0.000155999343264934
"651",0
"652",0.260715194774452
"653",0
"654",0.153710718034002
"655",0.197118129404741
"656",0.000690532245177677
"657",0.338621089607824
"658",0.000106650834935773
"659",0
"660",0.0109606779651585
"661",0
"662",0.0514717206785776
"663",0
"664",0
"665",0
"666",5.74683020398981e-05
"667",0
"668",0
"669",0.219372408723867
"670",0.023918208700057
"671",0
"672",0.00704984071369519
"673",0.0004381374563176
"674",0
"675",0.0208471884397392
"676",0.00619272286670036
"677",0
"678",0
"679",0.218745544791692
"680",0.298171063775416
"681",0
"682",0
"683",0
"684",0
"685",0.105916007010491
"686",0.668200833401911
"687",0.622123557214761
"688",0.325301703610642
"689",0.799007902087223
"690",0.432151110182052
"691",0.327599973327885
"692",0
"693",0.212994301604682
"694",0.529709303689992
"695",0.199282900134887
"696",0.00385535568027384
"697",0.309215565470861
"698",0
"699",0
"700",0
"701",3.99680288865056e-15
"702",0.158977173004323
"703",0.311845954926452
"704",0.133672128591731
"705",0.0088621256499325
"706",0
"707",0.809344401494263
"708",0
"709",0
"710",2.10831352376317e-13
"711",0.0739606509209099
"712",0.0979923269898477
"713",0.0652426009183353
"714",0.178566859270402
"715",0.689725639351086
"716",0.00195803718706955
"717",0.259126412927271
"718",0.590701482981506
"719",0.331890826028633
"720",0.744037519874837
"721",0
"722",0
"723",0.553823006782632
"724",7.50424167250685e-11
"725",0.000474930819855945
"726",0
"727",0
"728",0.0212784342571308
"729",0.152644665901149
"730",0
"731",0.23832411041394
"732",0.321819095552436
"733",0.401088054882338
"734",0.248957698147726
"735",0.0510338113274021
"736",0.447581618705828
"737",0.130344124527458
"738",0.347059625633948
"739",0.568096206491451
"740",0.253821603441175
"741",0
"742",0.286566308254906
"743",0.935165975399491
"744",6.21453773894665e-05
"745",0.91247404934464
"746",0.040673470278538
"747",0.181437308712724
"748",0.00468570412551139
"749",0.721437074837068
"750",0.155228427185829
"751",0.263635970134639
"752",0.259826917653045
"753",0.477968441060322
"754",0.030152344637876
"755",0
"756",0
"757",0.314741794183653
"758",0.207120351082138
"759",0.00430858477541141
"760",0
"761",0
"762",0
"763",0.0317750524593154
"764",0.250936592169316
"765",0.118494482140119
"766",0.17875348829449
"767",0.771185013931308
"768",0.0614296250809877
"769",0.179938789634919
"770",0.0713681395147769
"771",0.748688070989477
"772",0.285151920763401
"773",0.0576177186862425
"774",0.535502815895472
"775",0
"776",0.270438729180556
"777",0.845961051988453
"778",0.772999154977189
"779",0.139719452559964
"780",0.580914122278684
"781",0.259890535970232
"782",0
"783",0.244198926877539
"784",0.612474806092245
"785",0.0818578490230075
"786",0.131223442754926
"787",0.783597484813412
"788",0.616554169179787
"789",0.454667854505037
"790",0.128540512040462
"791",0.715721592224254
"792",0.388113000431576
"793",0.129440355736969
"794",0.211176365382591
"795",0.573533775226358
"796",0.00127083693011143
"797",0
"798",0
"799",0
"800",0.0338744601580159
"801",0.534066915486862
"802",0.665352753160825
"803",0.724777287551986
"804",0.553294837280944
"805",0.823027691307118
"806",0.190850090277006
"807",0
"808",0
"809",4.62299742409744e-06
"810",0
"811",0.186892905329193
"812",0.762159650508346
"813",0.267455151316238
"814",0
"815",7.65989153472812e-06
"816",0.135210272567066
"817",0.0182175332642801
"818",0.214910424047098
"819",0.105807959827696
"820",0.037408952049221
"821",0.00504168978837627
"822",0.136095673213693
"823",0.212348687186211
"824",0
"825",0.106032069665315
"826",0.939790567181279
"827",0.189622998647221
"828",0.0379196783824547
"829",0.0955785002394474
"830",0.0272199067511744
"831",0.104282972934695
"832",0.0308959821924377
"833",0.0965361641125234
"834",0.553345092686867
"835",0.94139644579417
"836",0.738235066868988
"837",0.401338099952889
"838",0.91666041842165
"839",0.46427742237606
"840",0.801977097350704
"841",0.44886532028485
"842",0.00630343872511197
"843",0.056141746064826
"844",0.00277032522323784
"845",0.139480490350095
"846",0.765235929444062
"847",0.836596446880558
"848",1.57275211760677e-05
"849",0.131878889620358
"850",0.32012842802618
"851",0.0505423161876555
"852",0.189930686913934
"853",0.248382642420601
"854",0.735477451310614
"855",0.0603572834820072
"856",0.0588481350304865
"857",0.715109109016501
"858",0.000671880842481598
"859",0.938019961227449
"860",0
"861",0.0731351356245349
"862",0.102611563323983
"863",0.220056192786891
"864",0.255235086501259
"865",0.30096777753953
"866",0.0920294876484103
"867",0.233168341996031
"868",0.119493850664259
"869",0.0139929091663188
"870",0
"871",0.000392419108932285
"872",0.0092148503553352
"873",0.0221319986611942
"874",0.0118217136046574
"875",0
"876",0.252230468682285
"877",0.0128066934472514
"878",0.00526167422664747
"879",0.29215783351661
"880",0.153116598493001
"881",0.0417984203395687
"882",0.5117259065986
"883",0
"884",0
"885",1.05421789398097e-06
"886",2.25966689804125e-10
"887",1.44693146353347e-11
"888",8.88178419700125e-16
"889",6.82568157550634e-08
"890",6.26728041686064e-08
"891",0.102496214390261
"892",0.00867544989307645
"893",3.82539044885277e-09
"894",1.86184401229639e-13
"895",1.79427916968677e-10
"896",1.37425647629419e-05
"897",1.72038359710358e-05
"898",6.47839187858379e-05
"899",4.72695121094269e-05
"900",6.49702514010642e-13
"901",3.63213903131765e-06
"902",6.77650824343345e-10
"903",9.39127388022154e-06
"904",0
"905",1.11022302462516e-16
"906",0
"907",9.99200722162641e-16
"908",3.84381870777162e-09
"909",0
"910",0
"911",0
"912",0
"913",5.42151212812314e-10
"914",2.3987472008713e-09
"915",1.0769163338864e-14
"916",0.00653743446935939
"917",2.99760216648792e-15
"918",3.33066907387547e-15
"919",5.27855537058031e-11
"920",2.23722432801665e-08
"921",3.530509218308e-14
"922",1.4432899320127e-15
"923",6.95332680322736e-13
"924",4.44089209850063e-16
"925",0
"926",0
"927",8.32667268468867e-15
"928",0
"929",0
"930",0.99439111903882
"931",0.959878436653362
"932",0.0518161382570732
"933",0.00637907701064666
"934",0.0299597967084492
"935",1.42419409598915e-12
"936",0.719745442624248
"937",0.207757097782287
"938",3.04294241583181e-05
"939",0.00145566230017358
"940",0.455368134972631
"941",0.00564455060270386
"942",0.241195540228982
"943",0.922436486103559
"944",0.178396811726568
"945",0.402258435352915
"946",2.51269843820623e-08
"947",0.723798573222395
"948",0.563816898083442
"949",0.000273830044109746
"950",6.69464483848969e-14
"951",0.0320432514652904
"952",0.449557629786273
"953",0
"954",0.584828536472552
"955",0
"956",0
"957",8.47945676731854e-05
"958",1.88143390140727e-05
"959",0
"960",0.180486441424642
"961",0.000316697497325324
"962",0.00015337027374962
"963",0.167916085263906
"964",0.0637568356647437
"965",0.00329650292622197
"966",0.530369370958813
"967",0.0649067941150012
"968",1.44089559097615e-05
"969",0.0424060439684424
"970",0.000278695221279102
"971",0.00139751526373944
"972",2.05287187249326e-09
"973",0.00365597279740393
"974",0
"975",8.26338997228504e-13
"976",0
"977",0.10742341204767
"978",4.32986979603811e-15
"979",0
"980",0.750918928691706
"981",0.0953366832929879
"982",0.16082380296465
"983",0.869186780602549
"984",0.181396796651865
"985",0.891909657095302
"986",0.566411809092195
"987",0.094239302787403
"988",0.544003459157599
"989",0
"990",0.621506125865026
"991",0.0823027626473783
"992",0.0298145269665863
"993",0.695192570632578
"994",0.353377434940423
"995",0.0901122032632051
"996",0.852586412273463
"997",0.617043546834154
"998",0.460513945249337
"999",0.684693893158536
"1000",0.913681465093687
"1001",0.231338768210328
"1002",0.0155222202771601
"1003",0.641110840846919
"1004",0.613427319429849
"1005",0.053961021962237
"1006",0.509083565975751
"1007",0.00536773251641887
"1008",0.0514676583384727
"1009",0.681402259264901
"1010",0.486390310901508
"1011",0.133504303332667
"1012",0
"1013",0.360790953478092
"1014",0.647683114256809
"1015",0.784867637628521
"1016",0.570903274358884
"1017",0.156186445312586
"1018",0.027532158641093
"1019",4.27489014798166e-06
"1020",0.426640889097255
"1021",0
"1022",0
"1023",0
"1024",0
"1025",0.213700868579709
"1026",1.26565424807268e-14
"1027",0.97546024458942
"1028",0.728454315061084
"1029",0.31208333280596
"1030",0.174847518474701
"1031",0
"1032",0.268233160867588
"1033",0.265156244096841
"1034",0.0239072948107752
"1035",0.0378623326387233
"1036",0.413781139483884
"1037",0.0427418627445552
"1038",0.463090280034129
"1039",0.00492659056028788
"1040",0.000126301195046086
"1041",0
"1042",0.2396208850823
"1043",0.355003749593157
"1044",0.0590058531532238
"1045",0.0379533650990809
"1046",0.000216037409508818
"1047",1.45714249277784e-06
"1048",0.575398384548026
"1049",0.000100818865112151
"1050",0
"1051",1.2510026348167e-10
"1052",5.95878901776814e-12
"1053",6.42766577740872e-08
"1054",0.000208314987032221
"1055",0
"1056",0.00252713063196786
"1057",0.0283790505551161
"1058",0.00108623084235637
"1059",8.54871728961371e-15
"1060",1.58716884528509e-05
"1061",0.000953785640824267
"1062",2.75113265502114e-13
"1063",1.63296243194111e-09
"1064",0.0126928010993677
"1065",1.78273569564347e-05
"1066",1.03520486627318e-08
"1067",2.2005592006491e-05
"1068",0.00236582148362774
"1069",1.20016405358303e-06
"1070",1.02127021478493e-05
"1071",0.000340031299590593
"1072",2.71013493686745e-05
"1073",6.02375482827711e-10
"1074",3.28458660903141e-06
"1075",0.00595051827910287
"1076",0.160566225712452
"1077",2.90594884821971e-08
"1078",0
"1079",0.104437446753107
"1080",0.0597621076499419
"1081",0.00156034884738543
"1082",0
"1083",0
"1084",0.236284338402367
"1085",0.667548247521877
"1086",2.60680686856585e-05
"1087",0.0185662182209261
"1088",0.309267848099936
"1089",0.00317344018082422
"1090",0
"1091",0.00462209808412328
"1092",0.00127362965801225
"1093",0.0713055959577507
"1094",0.328082829061661
"1095",3.92964437559984e-05
"1096",0
"1097",0
"1098",0.0012397859348916
"1099",5.62750118515698e-06
"1100",0.248831470739685
"1101",5.91765869475402e-05
"1102",0.0148647212840615
"1103",0
"1104",0.00124150444895821
"1105",2.96792107556954e-08
"1106",4.5134557535853e-08
"1107",0.000891010003707726
"1108",1.61242182195043e-05
"1109",0.000576822073124705
"1110",3.11954106213541e-07
"1111",0.135954119055197
"1112",0.00719388431742807
"1113",0.000199450197590045
"1114",1.78152456439262e-05
"1115",0
"1116",0.0346453782574836
"1117",0
"1118",8.1137829788247e-10
"1119",0.00039874506133919
"1120",0.000439374974094298
"1121",0.000392868731022733
"1122",0.00952865895792632
"1123",5.62122497993478e-07
"1124",6.11762972857477e-06
"1125",0.000654581535390997
"1126",0.0146409988372168
"1127",0.080570890122225
"1128",0.000339375931144192
"1129",0.352747126434665
"1130",0
"1131",0
"1132",5.06796826726941e-11
"1133",0.000118479309128672
"1134",0
"1135",0
"1136",0.00010829351816477
"1137",0
"1138",0.00330902499509067
"1139",0
"1140",0.000408439694017382
"1141",0.098614295883212
"1142",0.000722314547882519
"1143",5.11968245575645e-12
"1144",0.0106161754394799
"1145",6.20974282978803e-05
"1146",2.75642424445444e-05
"1147",0.0015643622487288
"1148",1.41391944818992e-08
"1149",0.000284212681636031
"1150",1.71516687130779e-06
"1151",0.00100751161697676
"1152",0.00071678657793206
"1153",0.00477659213196358
"1154",7.93536052423605e-08
"1155",0.19953586694153
"1156",0.0353054277889224
"1157",1.87405646556726e-13
"1158",0.000131512635555442
"1159",9.51787312963859e-06
"1160",1.90143708556079e-08
"1161",6.25175707114067e-06
"1162",0
"1163",0
"1164",0
"1165",0.282139546593391
"1166",0.0586264705934761
"1167",0.0732914171128793
"1168",0
"1169",5.32622612681166e-09
"1170",0.42914113754134
"1171",0.735825086560764
"1172",0.661564138419892
"1173",0
"1174",0.354576275135048
"1175",0.184425920818952
"1176",0
"1177",0
"1178",0.000508374104354226
"1179",3.95694640675792e-06
"1180",0.0106184425871715
"1181",0.000113456414943647
"1182",0.000427755194391977
"1183",7.86759546400617e-12
"1184",0.0669939175285607
"1185",1.74116097640953e-05
"1186",0
"1187",0.0032892420997902
"1188",1.00889634424561e-07
"1189",0.00357918586649497
"1190",5.10206171527861e-05
"1191",0.00814603888633747
"1192",1.67198098399712e-06
"1193",1.88687169877522e-06
"1194",0
"1195",9.5892087400351e-05
"1196",0.000220559379300878
"1197",6.62486604074974e-06
"1198",1.30847071844187e-07
"1199",1.05528950928857e-05
"1200",0.00141508705564741
"1201",0.00096823649270239
"1202",0.000154287886038551
"1203",3.47817569190667e-08
"1204",0.271219359761956
"1205",0.000190765230663748
"1206",0.0317763498280683
"1207",0.000130399062483244
"1208",2.46469511466785e-14
"1209",6.81842360350515e-11
"1210",0.000118548205396141
"1211",0
"1212",1.44673162338904e-12
"1213",2.5143750909562e-05
"1214",6.57474075183018e-13
"1215",0
"1216",2.22434026753149e-09
"1217",0
"1218",0.0175452616598651
"1219",0.0003070508802685
"1220",0
"1221",0
"1222",0
"1223",8.05284816607355e-09
"1224",1.21512241268995e-07
"1225",0
"1226",0
"1227",0
"1228",0.438838778217099
"1229",0.0128567338946826
"1230",0.0215629968803172
"1231",0
"1232",0
"1233",0
"1234",0
"1235",0
"1236",0.0407275134887928
"1237",0.0968328802969167
"1238",0.0846951520307443
"1239",0.0634716943057601
"1240",0.429025503251122
"1241",3.5527136788005e-15
"1242",0.0028073782694632
"1243",0
"1244",0.000502483621991012
"1245",0.992123002382724
"1246",0.495460519214971
"1247",0.821803201704071
"1248",0.274414070047855
"1249",0.0990958578483283
"1250",0
"1251",9.59895036789504e-08
"1252",0
"1253",0.96492826229579
"1254",0.00698177961512125
"1255",0.756457971263865
"1256",0.0107724197941983
"1257",0
"1258",0
"1259",0
"1260",0.0507231775532812
"1261",0.00212445687246798
"1262",0.765445477034514
"1263",0.0067960831977204
"1264",0.768477257869493
"1265",0
"1266",0
"1267",0
"1268",0
"1269",0
"1270",0
"1271",0
"1272",0
"1273",0.507979752439454
"1274",0.204904238178979
"1275",0
"1276",0.219890451140782
"1277",0
"1278",0
"1279",0
"1280",0.694614342006741
"1281",0.400379673447072
"1282",0.0541540724740106
"1283",0.242174920013237
"1284",0.530793328426625
"1285",0.054588216122207
"1286",0.308694036653746
"1287",0.298331265944537
"1288",0.206036124439755
"1289",0.825292286208806
"1290",0
"1291",0
"1292",0
"1293",0
"1294",0
"1295",0.518137469752716
"1296",0
"1297",0.0999427516827589
"1298",0.168693213247243
"1299",0.874458295468378
"1300",0
"1301",0.0145610707735586
"1302",0.0608555437120388
"1303",0.00205465343946687
"1304",0.381876163614902
"1305",0.833501271516173
"1306",0.588590165814882
"1307",0.817875390178021
"1308",0
"1309",0.155938343920691
"1310",0.692667355962973
"1311",0.600381746527957
"1312",0.0643800806315362
"1313",0.303293782636906
"1314",0.0579030429140478
"1315",0.984295645978979
"1316",0.22100417661512
"1317",0.409562249233363
"1318",0
"1319",0
"1320",0
"1321",0
"1322",0.125186566677278
"1323",0.366355301665154
"1324",0
"1325",0
"1326",0
"1327",0.486223892729385
"1328",0
"1329",0
"1330",0.0390265652192965
"1331",0.901487442046375
"1332",0
"1333",0.00446745121191927
"1334",0.000331870046132665
"1335",0.320094318356664
"1336",0.0396296643924787
"1337",0.709928302078669
"1338",0.262748865295525
"1339",0.827601805043625
"1340",0
"1341",0.202728978000301
"1342",0.137656724045458
"1343",0.673553783931226
"1344",0.266082475611959
"1345",0.000316692544388042
"1346",0.47799967065142
"1347",0.150796401172062
"1348",0.87359752087154
"1349",0
"1350",0
"1351",0.0517031136654863
"1352",0.966540257257052
"1353",0.056327280061508
"1354",0.0639075990020083
"1355",0.0856926692822554
"1356",0.666930294489653
"1357",0.0125182575011177
"1358",0.854808717970982
"1359",0.0791256066652161
"1360",0.67790844545446
"1361",6.48296899563583e-05
"1362",0
"1363",0
"1364",0
"1365",0.543389780671088
"1366",0.35335826062049
"1367",0.605593514022043
"1368",0
"1369",0
"1370",0
"1371",0
"1372",0
"1373",0.12103488757075
"1374",0.0750096707314836
"1375",0
"1376",0.00145471935483765
"1377",0
"1378",0.0143589793247645
"1379",0.00435099505249326
"1380",0.616535575896978
"1381",0
"1382",0.849618657465002
"1383",0.543020309801116
"1384",0.00665280810323199
"1385",0.814280937455833
"1386",0.147363256401143
"1387",0.472026985099602
"1388",0
"1389",0.183295337547339
"1390",0
"1391",0
"1392",0.20366968700607
"1393",0
"1394",1.62053509722426e-07
"1395",0
"1396",0
"1397",0.0559503819933482
"1398",0.16931000390377
"1399",0
"1400",0.00261965520606044
"1401",0
"1402",0.327841365864824
"1403",0.378181313060259
"1404",0.573677241949955
"1405",0.0515042189720784
"1406",0.0456771457774722
"1407",0.620433310047276
"1408",0.413111229105845
"1409",0.175340445149584
"1410",0.660873161952507
"1411",0.0266035790634959
"1412",0
"1413",0
"1414",0
"1415",0.751294278452
"1416",0.358162884286809
"1417",0.0463571118329588
"1418",0.873570075985508
"1419",0.727875752059135
"1420",0.237635779194109
"1421",0.0408919721220414
"1422",0.90753501755728
"1423",0.958572106757348
"1424",0.974014369956078
"1425",1.70041758451589e-12
"1426",0
"1427",0.32985927347326
"1428",0.468345080028858
"1429",0.327460928625837
"1430",0
"1431",0
"1432",0
"1433",1.10071951553437e-11
"1434",0
"1435",0.000475758239122714
"1436",0.000138233752979278
"1437",3.23597715401469e-07
"1438",0.0385214006379631
"1439",0.000114868172110261
"1440",0.00599716717668564
"1441",0.0425165259589163
"1442",0
"1443",3.33066907387547e-16
"1444",0
"1445",0.0902779142084841
"1446",0.606401148481795
"1447",0.116960593132894
"1448",0
"1449",0.173247762729366
"1450",0
"1451",0.177671146057501
"1452",0
"1453",0
"1454",0
"1455",0
"1456",0.184154218078154
"1457",0.944080005691355
"1458",0.000502908449426132
"1459",0
"1460",0.00142912210809165
"1461",0.271389229083882
"1462",3.19350546007513e-09
"1463",0.073471990226053
"1464",0.000207534207961269
"1465",0.00808648737187956
"1466",0
"1467",4.99039925716538e-06
"1468",0
"1469",0
"1470",0.00129811888371667
"1471",0.000648219818913165
"1472",0.0069560471615564
"1473",0.326333646174813
"1474",0.000145660408176207
"1475",1.00027541805048e-10
"1476",0
"1477",3.24900774173464e-07
"1478",0.00337476832134465
"1479",1.32000821384537e-09
"1480",9.99200722162641e-16
"1481",5.09379094459916e-10
"1482",0
"1483",4.90847813949813e-07
"1484",0.0221462572743879
"1485",8.32717566802144e-05
"1486",0
"1487",0
"1488",1.31639775203807e-05
"1489",0
"1490",0.0415436667796857
"1491",0
"1492",0
"1493",0
"1494",0
"1495",0
"1496",0
"1497",0.000521630698636977
"1498",0
"1499",0
"1500",0
"1501",0.000834736594144125
"1502",0
"1503",0
"1504",0
"1505",0
"1506",1.05226272140158e-10
"1507",0.886361765399346
"1508",0.66999996128031
"1509",2.21486334828214e-08
"1510",9.67465271758394e-05
"1511",0
"1512",0
"1513",0
"1514",0
"1515",0
"1516",0
"1517",0.538594597047103
"1518",0.0299268135197003
"1519",0.68623569054671
"1520",0.798691743032113
"1521",0.650193063180355
"1522",0.354117454078837
"1523",9.11826170124641e-13
"1524",0
"1525",0.656375754453763
"1526",0.858876670420823
"1527",0.318884946022803
"1528",0
"1529",0.460525594943506
"1530",0
"1531",0.00351404494525531
"1532",6.37626396127189e-10
"1533",0.100444691475229
"1534",0
"1535",0
"1536",0
"1537",0.000379201410512287
"1538",0.00853013292075167
"1539",2.96429547574917e-14
"1540",0.01498848722039
"1541",0.00380665754902165
"1542",0.120924038940649
"1543",0.146134656528346
"1544",0.000397254078484677
"1545",1.97655023614907e-06
"1546",9.25424052576895e-05
"1547",2.49634703017865e-05
"1548",0.520990683318906
"1549",0.111696497204119
"1550",0.35639795266713
"1551",0.0548575504448841
"1552",0.0320785904384454
"1553",0.117235071309741
"1554",2.75630566037854e-06
"1555",0
"1556",0
"1557",1.01357677806391e-09
"1558",0.00339669510214602
"1559",0
"1560",1.60237915369787e-06
"1561",2.78071227128862e-05
"1562",0.0481153657087621
"1563",4.62297565362313e-06
"1564",4.66104500551623e-07
"1565",0
"1566",1.22124532708767e-15
"1567",0
"1568",6.25412916540613e-05
"1569",0.0114288253575672
"1570",0
"1571",0
"1572",0.437886449494284
"1573",0.060647712945763
"1574",0.0099110183127824
"1575",0.00132841962415531
"1576",6.66807622962118e-06
"1577",0.0218963134808995
"1578",0.865835828773975
"1579",0.54248582254103
"1580",0.686874880332808
"1581",0.505617872632433
"1582",0.338333677216651
"1583",0
"1584",0
"1585",0.000522324769441918
"1586",0
"1587",1.70636796692492e-07
"1588",0.0310916869049269
"1589",0.00655768674240187
"1590",8.44483799555817e-08
"1591",0.988523751519358
"1592",0.0672897779244858
"1593",0.183563742268876
"1594",0
"1595",0.222804065988244
"1596",0.0568501389750553
"1597",0.492754254890581
"1598",0.207350005535256
"1599",0.236325755347211
"1600",0.355078206881174
"1601",0.152667533172141
"1602",0
"1603",0.0191714219603614
"1604",0
"1605",0.564902765023272
"1606",0.595040585401059
"1607",0.00694381981520165
"1608",0
"1609",0.27356531370919
"1610",0
"1611",0
"1612",0.179090714888079
"1613",0.246528229562461
"1614",0.000105197562092929
"1615",0.153736489662444
"1616",0.00036279695038921
"1617",0.783753736456876
"1618",0.335708617528099
"1619",0
"1620",0
"1621",0
"1622",0
"1623",0.00456560065530087
"1624",0.00173613673135931
"1625",0
"1626",1.07556702200196e-06
"1627",3.79756836310641e-07
"1628",0
"1629",2.39405196555964e-07
"1630",0
"1631",0.000525586702862735
"1632",0.0303487625580779
"1633",3.10862446895044e-15
"1634",3.77475828372553e-15
"1635",0.880103240952968
"1636",0
"1637",1.80389935877656e-07
"1638",3.33066907387547e-16
"1639",0.00152320703142639
"1640",0
"1641",0
"1642",6.39687525172405e-09
"1643",0
"1644",1.81954451505817e-12
"1645",2.25356358019013e-08
"1646",1.79121286303374e-06
"1647",1.17791332243655e-11
"1648",7.14086362501032e-05
"1649",3.94753196051312e-05
"1650",1.93662086367397e-09
"1651",3.34108437582969e-08
"1652",1.38390681932998e-05
"1653",0.0099991572266247
"1654",0.0708308364744076
"1655",0
"1656",5.87118020867194e-10
"1657",7.27465434502417e-06
"1658",0.000726401864074466
"1659",6.45437256876491e-05
"1660",9.43410809967071e-05
"1661",0.0108321647940335
"1662",0
"1663",0
"1664",6.00078803314474e-08
"1665",0
"1666",0.700806454672628
"1667",0.260709740673646
"1668",0.949766333170132
"1669",0.571513967749263
"1670",0
"1671",0.0411381110916437
"1672",0.829467535846513
"1673",0.000488042970483216
"1674",0.272800682060207
"1675",0
"1676",0.768650238861587
"1677",0.88958584287252
"1678",0.219458258540911
"1679",0.042644487538061
"1680",0.674476789388836
"1681",0
"1682",0
"1683",0.311119838315356
"1684",0.263008490777463
"1685",0.00714570104388212
"1686",0
"1687",0.238781835866883
"1688",0.549856801328559
"1689",0.996250524859164
"1690",0.00751476859698641
"1691",0.280320015763754
"1692",0.0501426110523853
"1693",0.218206436858823
"1694",0.795867393446093
"1695",0
"1696",0
"1697",0.541284640030979
"1698",0.0513432362638302
"1699",0.317241317285487
"1700",0.974046751086825
"1701",0.0249780308207634
"1702",0.204105535901039
"1703",0.137044208752182
"1704",0
"1705",0
"1706",9.19819775901942e-13
"1707",0.00262762795168536
"1708",8.87787080516844e-08
"1709",0
"1710",0
"1711",0
"1712",0.00767071113104367
"1713",2.99760216648792e-14
"1714",1.12376774552558e-11
"1715",0
"1716",8.99280649946377e-15
"1717",2.60608645774596e-10
"1718",5.29929253734185e-06
"1719",0
"1720",4.21884749357559e-15
"1721",2.11092920920919e-10
"1722",0
"1723",0.152834128812862
"1724",0.0306579921612681
"1725",0.875663374636389
"1726",0
"1727",0.167874293879643
"1728",0.328167148041797
"1729",0.00544042246344256
"1730",0.223068774184742
"1731",0
"1732",2.30979613213833e-09
"1733",0.843945556418406
"1734",0.0264898377456474
"1735",0.73749413458966
"1736",0
"1737",0
"1738",0.897396481885112
"1739",0.156435047676581
"1740",0
"1741",0.542169170585164
"1742",0.869370910716823
"1743",0.57758578324087
"1744",0.720652511983707
"1745",0.583983875988352
"1746",0.236455637682566
"1747",0.812879293268054
"1748",0.174468088571205
"1749",0.844227782558212
"1750",0
"1751",0
"1752",0.00212818726009145
"1753",0.132503450807938
"1754",0.0857362520942976
"1755",0.019355503821929
"1756",0.024906547818539
"1757",0.757264386177543
"1758",0.555134240100895
"1759",0.836890845042531
"1760",0.0180827857690304
"1761",0.671996492948267
"1762",0.270078449293627
"1763",0.0234300784770533
"1764",0
"1765",0
"1766",8.64155746960193e-10
"1767",0.0559813697861967
"1768",0.343617711309036
"1769",0.430771899622123
"1770",0.0943717075196531
"1771",0.471774998694055
"1772",0.477108329053352
"1773",0
"1774",0.00111764069195608
"1775",0.363903122828956
"1776",3.78015762035888e-05
"1777",3.14009617197186e-08
"1778",0.000404355260907763
"1779",0.273610528791396
"1780",0.00357704809240833
"1781",0
"1782",5.29233101786986e-08
"1783",0.00965008383321997
"1784",0.000430331533696537
"1785",0.0319622667871386
"1786",0.154956042077708
"1787",0.000106682270089808
"1788",0.00107643779048927
"1789",0.850341683028035
"1790",0.000862536026290939
"1791",5.94397622233345e-08
"1792",5.01893965165756e-07
"1793",0
"1794",0
"1795",0.0929517194374894
"1796",0.0132663755507196
"1797",3.82443213897687e-06
"1798",0.714688225239102
"1799",0.310747213272598
"1800",0.0663136555247257
"1801",0.191479760396726
"1802",0
"1803",4.15733156833298e-05
"1804",0
"1805",0
"1806",0
"1807",0
"1808",0.68148398157695
"1809",0.416905712621678
"1810",0.335089413842681
"1811",0.00439649462106617
"1812",0.390909319780411
"1813",0.585455219011515
"1814",0.00308054162782267
"1815",0.0829015863622038
"1816",0
"1817",0
"1818",0
"1819",0
"1820",0
"1821",0.78383964971877
"1822",0.0647185497467818
"1823",0.851225322252038
"1824",7.17567151475862e-07
"1825",0.273364697125381
"1826",0.794673404218656
"1827",0.35935905113535
"1828",0.0267356983237832
"1829",0.853400455788945
"1830",0.480804100076095
"1831",0
"1832",0
"1833",0
"1834",0
"1835",0
"1836",0.285899185789646
"1837",0.737423474309215
"1838",0.0185642807311037
"1839",0.868905247254908
"1840",0.360949540550407
"1841",0.0252704116727176
"1842",0.439604717849012
"1843",0.156597970353393
"1844",0.374149570626427
"1845",0.88387483740614
"1846",0.057415023884947
"1847",7.80811063583187e-08
"1848",0
"1849",0.782437414663529
"1850",0.8791684178547
"1851",0.0127399570556173
"1852",0.920947613882996
"1853",0.0166670857475553
"1854",0.00247648325190719
"1855",0.4857626339452
"1856",0
"1857",0
"1858",0
"1859",0
"1860",0.0290773494581386
"1861",0.0119707915527788
"1862",0.750987472379725
"1863",0
"1864",0.433790793941814
"1865",0.015516336274097
"1866",0
"1867",0.000728056771421959
"1868",0.0222464526490112
"1869",0.0435111920705282
"1870",0.174085505558903
"1871",0.581297344262393
"1872",0.650807661579265
"1873",0.582480627491735
"1874",2.75668377014426e-13
"1875",0
"1876",0.570536891573401
"1877",2.22044604925031e-16
"1878",0.339278018220713
"1879",7.99341573376466e-07
"1880",0
"1881",0
"1882",0.156169474714219
"1883",0.0791841655916555
"1884",0.586213473235792
"1885",0.201526990840387
"1886",0.292925333060535
"1887",0.755646931505331
"1888",0.522942589453199
"1889",0.0156859755514338
"1890",0.131286283180154
"1891",2.02239858193565e-09
"1892",0
"1893",0.0815493335888857
"1894",0.103729471727191
"1895",0
"1896",0
"1897",0.0961245391299757
"1898",0.00992116256552156
"1899",0.00583062075739127
"1900",0
"1901",2.07029513243917e-06
"1902",0.00110454241912883
"1903",0
"1904",0.0862355840501889
"1905",0.00165024988660956
"1906",0
"1907",0.521057163113054
"1908",0.688130048403651
"1909",0.884476892226884
"1910",0.355870138844759
"1911",0.157455237674929
"1912",0
"1913",0.289036639828899
"1914",0.000295894085033388
"1915",0.186327630110803
"1916",0.2214311981811
"1917",0.700822605122187
"1918",0.0496650048188421
"1919",0.0722326264873465
"1920",0.0880555409850636
"1921",0.823025928694326
"1922",0.0390752652693533
"1923",0.142522318039709
"1924",0
"1925",0
"1926",0
"1927",0
"1928",0
"1929",0.0239390822387519
"1930",0
"1931",0.0411435335628916
"1932",0.524932597046148
"1933",0
"1934",0.440447221478906
"1935",0.363660001058414
"1936",0.0802342149181318
"1937",0.928365490309289
"1938",0.962965614244972
"1939",0
"1940",0.0298791308238676
"1941",0.0718330612035514
"1942",0.231068560516237
"1943",0.135543503069593
"1944",0.0249088877666297
"1945",0
"1946",0.00322100993807828
"1947",0.541776214081265
"1948",0.187531017269508
"1949",0.331458879700553
"1950",0.0486028417007287
"1951",0.548074162656505
"1952",0.417386766502898
"1953",0.543988905257693
"1954",0.199924154476088
"1955",0.291217376382855
"1956",0
"1957",0
"1958",0
"1959",0
"1960",0.0214611360311331
"1961",0.739103252624745
"1962",0.623577857204949
"1963",0.0212560607237295
"1964",4.98501240286942e-12
"1965",0.0679561128151821
"1966",0.231040446167736
"1967",0
"1968",0.231546703065569
"1969",0.376509648975475
"1970",0.0696026444220436
"1971",0
"1972",0.489004761626542
"1973",0.646427228832702
"1974",0.0833553891736518
"1975",0.266979338589529
"1976",0
"1977",0
"1978",0
"1979",0.25819693177151
"1980",0.967303103510193
"1981",0.109413853092709
"1982",0.135095284472822
"1983",0.0047954313072518
"1984",0.828310971918954
"1985",0
"1986",0
"1987",0
"1988",0
"1989",0.00412420912141076
"1990",0.17263590607389
"1991",0.132323981183243
"1992",0.00352084317269952
"1993",0
"1994",0
"1995",0
"1996",0.0826092340887298
"1997",0.695216365901509
"1998",0.926346944140325
"1999",0
"2000",0.271998188542518
"2001",0
"2002",0.233829296192706
"2003",0.00130329775981775
"2004",0.000405037214803228
"2005",0.0421406450318419
"2006",0.0289732393430958
"2007",0.301099313276489
"2008",0.0661963204647568
"2009",0.24204993658036
"2010",0.0755041512796012
"2011",0.384431202658683
"2012",0.681378131284249
"2013",0.135701433079408
"2014",0.0149284011148907
"2015",0.0547561900713591
"2016",0.016119901561597
"2017",0.0264221005232448
"2018",0.859277939764216
"2019",0.893888344819865
"2020",0.826515472900661
"2021",0
"2022",0
"2023",0.177339146201512
"2024",0.251591023176547
"2025",0.770730862670445
"2026",0.271461241174442
"2027",0.850721045588333
"2028",0.323301085757489
"2029",0.529198819291393
"2030",0.0705638521192444
"2031",0.436133621570775
"2032",0.520479386427729
"2033",1.8416418390288e-09
"2034",0.55428864915547
"2035",0.0526498879158817
"2036",0.631623205558161
"2037",0.245323525034543
"2038",0
"2039",0.0055744254918707
"2040",0.0375485396790778
"2041",0
"2042",0
"2043",0
"2044",0
"2045",8.70103988859228e-12
"2046",0.0080414926005955
"2047",7.85735654318387e-09
"2048",0.00216734313806799
"2049",0.196015081632648
"2050",0
"2051",0
"2052",0
"2053",0.510399100169282
"2054",0.0617871424046498
"2055",0
"2056",0
"2057",0
"2058",0.0685990964256731
"2059",8.13475597227775e-06
"2060",0.0186539083022464
"2061",0.062991906244375
"2062",0
"2063",0.286479065746244
"2064",0.029548091150974
"2065",3.45830034398364e-05
"2066",0.103209825578758
"2067",0
"2068",0.000106010491838782
"2069",0
"2070",0
"2071",0
"2072",0
"2073",0
"2074",0
"2075",0
"2076",0.00536216661889444
"2077",0.000368224144748908
"2078",0
"2079",1.11022302462516e-15
"2080",0.00102939424243353
"2081",0.014338303902827
"2082",0.78306860189673
"2083",0
"2084",0
"2085",0
"2086",1.62092561595273e-14
"2087",0.0436980243660042
"2088",0.00121587896366915
"2089",0.000451744430008727
"2090",0.0678880012113149
"2091",0.316379783805048
"2092",0.146528554054387
"2093",0.58861390280325
"2094",0.17213878717131
"2095",0.748814686578255
"2096",0.0482240343634704
"2097",0.00114280456586169
"2098",2.7279256631374e-10
"2099",0.00156435504348929
"2100",0.00127910457312808
"2101",0.00563281003879879
"2102",8.48398395593142e-05
"2103",0
"2104",0.941645689269484
"2105",0.372052338383724
"2106",0.234124279795959
"2107",0.450882791873338
"2108",0.0171218723175572
"2109",0.204567403180259
"2110",0.37518968417915
"2111",0
"2112",0.295971306529556
"2113",0.405701174284389
"2114",0.68877402327377
"2115",0.616195677215382
"2116",0.229372608974296
"2117",0.415983493994929
"2118",0.593167643688984
"2119",0.460701554893077
"2120",0.141895050981178
"2121",0.558874087265441
"2122",0.202449331799312
"2123",0.420686044441698
"2124",0.694489402334877
"2125",0
"2126",0.000195525108773631
"2127",0
"2128",3.93502038731341e-08
"2129",0
"2130",6.66732224985367e-11
"2131",2.8421709430404e-14
"2132",3.65891280940112e-07
"2133",2.95717217946301e-06
"2134",4.93538321322262e-10
"2135",1.04360964314765e-14
"2136",2.00544838155903e-05
"2137",3.22910930883324e-07
"2138",0.00531626539469909
"2139",1.24673493751004e-10
"2140",0.00137933566640169
"2141",4.14280942884204e-10
"2142",8.01073973821786e-09
"2143",3.49555939416213e-07
"2144",0
"2145",4.24787309105668e-07
"2146",5.94446714075048e-12
"2147",3.14006332047256e-09
"2148",5.00521892100592e-05
"2149",4.14162037998267e-11
"2150",1.26482977202969e-07
"2151",3.44057327072989e-09
"2152",9.67829150155808e-11
"2153",0
"2154",1.77510268706271e-08
"2155",0
"2156",0
"2157",2.4132367371088e-07
"2158",0
"2159",1.90558075829905e-06
"2160",9.22201429776059e-07
"2161",3.68477470757966e-11
"2162",0
"2163",0
"2164",0.91191142062804
"2165",0.220446643572897
"2166",0.212928235686733
"2167",0
"2168",0.175388815571753
"2169",0.43215719447822
"2170",0.596278112790337
"2171",0.0734721858526093
"2172",0.0493351163647905
"2173",0.667587383433117
"2174",0.107034860219028
"2175",2.25464394402186e-05
"2176",0
"2177",0.238288777075696
"2178",0.646143168866009
"2179",3.70808939109679e-11
"2180",0
"2181",0
"2182",2.93824453322378e-05
"2183",4.14339631693572e-05
"2184",0.00142563665122075
"2185",0.103676180663485
"2186",0.0816206826113838
"2187",0.0530373664049451
"2188",3.89821241952859e-09
"2189",0
"2190",0.32307328392785
"2191",0.00954820392241718
"2192",0.401640401626821
"2193",0.254806302825219
"2194",0
"2195",0.0675620080119321
"2196",2.74758704121858e-07
"2197",0.000110182467953579
"2198",0.0334757674482893
"2199",1.77047700944399e-08
"2200",2.81320739703439e-07
"2201",2.72117313688813e-05
"2202",4.40098069098838e-10
"2203",2.06853805528873e-07
"2204",4.20795877698055e-07
"2205",1.61592302504454e-05
"2206",0.0959027514391495
"2207",3.88418152197367e-07
"2208",8.95364090184314e-05
"2209",0
"2210",1.03734951717449e-06
"2211",0.0185779853589987
"2212",0
"2213",2.30843495430122e-07
"2214",0.0185363311617592
"2215",2.22044604925031e-16
"2216",4.78760053823635e-09
"2217",0.0160861815746846
"2218",7.86559706256185e-12
"2219",1.4432899320127e-15
"2220",0.488075610610381
"2221",0.0301256723749002
"2222",1.06077981654185e-06
"2223",0.21017759533202
"2224",0.376089394090771
"2225",3.29736238313671e-14
"2226",1.36890498936282e-13
"2227",0
"2228",0
"2229",0
"2230",0.299124000562891
"2231",0.0928081706612021
"2232",0.00157375321149178
"2233",0
"2234",0.492844754106891
"2235",0.10459182238252
"2236",0.0635351305536735
"2237",0.0108924015562313
"2238",0.345416529425474
"2239",0
"2240",0.00856992793104427
"2241",0
"2242",0.501413769412357
"2243",0
"2244",0.530505291385637
"2245",0.931997844268778
"2246",0.288286737948802
"2247",0.0397774571579651
"2248",0.00974085235223643
"2249",0.00277466613632904
"2250",0.249411355263205
"2251",0.585591594256238
"2252",0.00730731538769935
"2253",0
"2254",0.561729103473297
"2255",0.184378442508375
"2256",0.744562612390075
"2257",0
"2258",0.0571154692785689
"2259",0.0144239378980238
"2260",0.0340484449235893
"2261",0.967057257361979
"2262",0.0563861896919162
"2263",0.000181333110934601
"2264",0.0183906225842113
"2265",0
"2266",3.9430244846983e-08
"2267",0.834583370847572
"2268",0.00429309233248631
"2269",0
"2270",0
"2271",0
"2272",0
"2273",0
"2274",0.0670275559200525
"2275",0
"2276",0
"2277",1.49547041417009e-13
"2278",8.48515879781075e-08
"2279",0.000373124257290636
"2280",8.53641307640984e-08
"2281",0.0175288892575223
"2282",1.33226762955019e-15
"2283",0
"2284",6.29397942364385e-06
"2285",0
"2286",2.87058768400072e-06
"2287",0.000354929643586965
"2288",0.052756587870847
"2289",0
"2290",0
"2291",0.000394750757486184
"2292",0.074257437734331
"2293",0
"2294",0.0195302576395259
"2295",1.09619849864018e-08
"2296",0.011795224799263
"2297",0.51945191143915
"2298",0.000205324041536836
"2299",6.35023897166409e-06
"2300",0.0022662409317904
"2301",7.15904232536646e-05
"2302",0.00237597444603099
"2303",0.0554774237905888
"2304",0.00154600143926009
"2305",0.00384492656128577
"2306",0.465017400022267
"2307",2.4018205269094e-07
"2308",0
"2309",0
"2310",0
"2311",0.00049725858385985
"2312",1.52954702248298e-06
"2313",0.0605445643974856
"2314",0.0723236423482019
"2315",0
"2316",0
"2317",0.0135723756741448
"2318",6.34978705394973e-05
"2319",0.0140577450060211
"2320",0.220767403361529
"2321",0
"2322",0
"2323",9.60953538964304e-12
"2324",0
"2325",2.20944221651642e-06
"2326",2.8417507799916e-05
"2327",3.82338605220411e-12
"2328",3.92735251208975e-07
"2329",0.0617422349209246
"2330",0.827749798682296
"2331",0.159297591736923
"2332",0
"2333",0.147715848869238
"2334",0
"2335",0.00676099307269007
"2336",0.0169263647754234
"2337",0
"2338",0
"2339",0
"2340",0
"2341",0.0199896537522167
"2342",0
"2343",0
"2344",0
"2345",0
"2346",0
"2347",5.39412000079009e-05
"2348",2.9073410345859e-12
"2349",0.0238890741356782
"2350",0
"2351",0
"2352",0
"2353",0
"2354",0
"2355",0.00187785279752439
"2356",0.557768908541431
"2357",0.648688360915974
"2358",0
"2359",0
"2360",0
"2361",0
"2362",0.116704234910113
"2363",0.0101455584722554
"2364",0.696473253445007
"2365",0.49580331360208
"2366",0
"2367",0.121048577855559
"2368",0
"2369",0
"2370",0
"2371",2.46985172425163e-07
"2372",0.119578986258046
"2373",0.0320453629159775
"2374",0
"2375",0
"2376",0
"2377",0
"2378",0
"2379",0
"2380",0
"2381",3.02324831835676e-12
"2382",0.439718277908412
"2383",0.0267596150599239
"2384",0.153498783261201
"2385",0.0015445888533423
"2386",0.718399211933983
"2387",0.388804430697978
"2388",0.231760612026525
"2389",0.388301282072169
"2390",0.440168256923344
"2391",5.83783135570393e-05
"2392",0.021795174222479
"2393",0.00726852325820015
"2394",1.10599307490133e-11
"2395",0.392357577706733
"2396",0.690744975635025
"2397",0
"2398",0
"2399",0
"2400",0.0252920721670044
"2401",0.987315473186212
"2402",0.106756016860782
"2403",0.131133626868037
"2404",6.64018244833642e-07
"2405",0.0133540007855154
"2406",0.00243154927399891
"2407",0.427689265392495
"2408",0.777870802886737
"2409",0.453801317949765
"2410",0.0309439763053572
"2411",0.0399696443786768
"2412",0.0176816566845799
"2413",0.931507737669091
"2414",0.00315184385593392
"2415",0
"2416",0
"2417",0
"2418",0
"2419",5.20694598549198e-14
"2420",0.262731275402873
"2421",0
"2422",0
"2423",0
"2424",5.41960476496683e-10
"2425",0
"2426",1.74959491339166e-10
"2427",0.00193250048349336
"2428",0.292767576744128
"2429",0.000995517791749667
"2430",8.81787719952953e-07
"2431",0.190335431825444
"2432",0.00234093463455365
"2433",0.00659352785501943
"2434",0
"2435",0
"2436",0.000200976017283749
"2437",0.000731742390760681
"2438",0
"2439",1.84794226731899e-06
"2440",0.0139925301773078
"2441",0.0132523691449005
"2442",0.337303809998861
"2443",0
"2444",0
"2445",0.000709959346221423
"2446",0
"2447",2.00393910354535e-08
"2448",0
"2449",0
"2450",1.51593046069376e-05
"2451",0
"2452",0
"2453",0
"2454",3.29286763078862e-06
"2455",0
"2456",0.0179113211593476
"2457",4.82140165647404e-06
"2458",0.00700202991410448
"2459",0
"2460",0
"2461",0
"2462",0.142822712214942
"2463",0.130032573778821
"2464",0.0104130340926767
"2465",4.86453988202129e-10
"2466",2.95072808409458e-08
"2467",3.23074900165921e-14
"2468",0.0939424525757138
"2469",0.262479068803948
"2470",0.0101723134166445
"2471",0.0613334698549687
"2472",4.36774167755782e-06
"2473",1.52914068940468e-06
"2474",0.000294557838740772
"2475",0.0159585626727319
"2476",0.135514217656868
"2477",0.240431700528476
"2478",2.69631883487165e-09
"2479",0.180276779216718
"2480",0.026755476606116
"2481",4.30049859390103e-07
"2482",0.000795089260641868
"2483",5.17911326614051e-06
"2484",0
"2485",0.0348342120711667
"2486",0
"2487",0
"2488",0.00065917363704926
"2489",0
"2490",0.494437874521637
"2491",0.3324185914151
"2492",0.0900875033831204
"2493",0.103688665446766
"2494",0.264594786439357
"2495",5.20248563101733e-05
"2496",0.000602147298410238
"2497",0.0377230745492115
"2498",0.108710023256689
"2499",0
"2500",0
"2501",0
"2502",0
"2503",0
"2504",0
"2505",0
"2506",0.393550626812841
"2507",0.03395823653529
"2508",1.11022302462516e-16
"2509",0
"2510",0
"2511",8.78064517761956e-08
"2512",0
"2513",0
"2514",0
"2515",0.106611454760145
"2516",0.637726050162475
"2517",0.590253170328663
"2518",0.578857701068594
"2519",0.755041255553471
"2520",0
"2521",0
"2522",0.000785075142209823
"2523",0.752204666757801
"2524",0
"2525",0
"2526",0
"2527",1.7196712591816e-05
"2528",0
"2529",0.0921396080724688
"2530",0.339182071320985
"2531",0.288485982929261
"2532",0.0540203605218604
"2533",0
"2534",0.00147396514371878
"2535",0.119432973898804
"2536",0
"2537",0
"2538",0.0440939734655063
