"","x"
"1",1.00619368392785e-08
"2",0
"3",0
"4",0
"5",0.000186937524300768
"6",0
"7",0.000286797080904067
"8",1.66533453693773e-15
"9",0
"10",0
"11",0.091976370510263
"12",0
"13",0
"14",0.0119644559244206
"15",0
"16",0
"17",0
"18",4.30173777710152e-08
"19",0.020289052300432
"20",0.000393161993717084
"21",0.000729728565345256
"22",0.00018538777344046
"23",0.00117861147299048
"24",0
"25",0.00100174219345273
"26",0
"27",1.76603176527124e-11
"28",0
"29",0
"30",2.99760216648792e-14
"31",0
"32",0
"33",0
"34",0
"35",0.753329998140255
"36",0.392054167973139
"37",0.117049871180564
"38",0
"39",1.76940027107886e-06
"40",0
"41",0.812729007526342
"42",0.000736556737163663
"43",0.0393825073689027
"44",0
"45",0
"46",0
"47",0.0365835711792786
"48",0.77413514044723
"49",0.21684511740739
"50",0.343108145555208
"51",0.050784536464608
"52",0
"53",0.0653448095279022
"54",0
"55",0.0255836116699841
"56",0.21509273981706
"57",0.0498945317407971
"58",0
"59",0.0150602403144624
"60",0.792253705841394
"61",0.335194722406571
"62",0.00787472163231373
"63",9.70916328262295e-05
"64",0.329068531436938
"65",0
"66",0.0533676451150934
"67",0.00038361040321111
"68",0
"69",0.143933284683169
"70",0.612705804435431
"71",0.00768064696236759
"72",0.005519897108612
"73",0
"74",0.226190844703219
"75",0.0150120760107572
"76",5.7323246220875e-06
"77",3.3304403679324e-10
"78",0.337909275763491
"79",0.0414181694496547
"80",3.91842114311203e-12
"81",0
"82",0
"83",7.37413252487329e-05
"84",5.80804055960726e-08
"85",0
"86",3.69679097567133e-06
"87",0
"88",0.301199266284606
"89",0.314346555699755
"90",0
"91",9.58592401081315e-05
"92",0.0493010301934471
"93",0.0779432769646307
"94",0.320310379870248
"95",0.147816266245173
"96",0.285951544457895
"97",0.40753416948406
"98",0.285067382642247
"99",0.409762654824761
"100",0.317428987041094
"101",0.84487106708925
"102",0.199998417666985
"103",0.00010632685631029
"104",0.16153213722974
"105",1.10287259379449e-05
"106",0
"107",0.074643040089614
"108",0.0316953839676462
"109",0.0975092109569817
"110",0.231096323372346
"111",0.119239099776261
"112",0.162750581292191
"113",3.43641032185538e-07
"114",1.75074589614521e-06
"115",6.66133814775094e-16
"116",0.0183733300620029
"117",6.3218350776495e-08
"118",0.0892430623593232
"119",1.27342580924505e-13
"120",0
"121",0.013382354802898
"122",0
"123",0
"124",0.0321108904193579
"125",0.0351744151215569
"126",0
"127",0.0412161112154592
"128",0.00763409503798518
"129",0.00382007172774157
"130",0
"131",0.0840012060461531
"132",0.0136578384379397
"133",0.0201555936668129
"134",0.919576953694591
"135",0.350694275400163
"136",0.0012581128034288
"137",0.641416653054692
"138",0.0564496112189301
"139",0.03758668957573
"140",0
"141",0
"142",2.70894418008538e-14
"143",0.472268739255529
"144",0.0670996211151338
"145",0
"146",0
"147",0
"148",0.54074768792837
"149",0.973029207776641
"150",0.304275710770151
"151",0.417440275384895
"152",0.949431535797388
"153",0.175699029717218
"154",0.876212620153071
"155",0.283864427881577
"156",0.300858144206049
"157",0.000728876006992119
"158",0.417412518540617
"159",0
"160",0.135272840790203
"161",0.000778875174745397
"162",0.757829367152732
"163",0.0950677892205901
"164",0.0909707908944898
"165",0.215503007923524
"166",0
"167",0
"168",0.0743573147035923
"169",0.1762202929241
"170",0.0570530689305446
"171",0.00691227418545148
"172",0
"173",0
"174",0
"175",5.68993741012491e-11
"176",0
"177",0.0413512204437692
"178",0.204587255917335
"179",0
"180",0
"181",0
"182",0.113084284655686
"183",0.0362567145866027
"184",0.0568726568340803
"185",0
"186",0
"187",0.557014377422489
"188",0.971726336546994
"189",0.146975636280865
"190",0.00736325190495968
"191",0.278261359862455
"192",0.373853512143892
"193",0.670678245569787
"194",0
"195",0
"196",0
"197",0
"198",0.106183277493004
"199",0.666382723812311
"200",4.17516123896178e-08
"201",0.00175505246318852
"202",0.509962230566585
"203",0.140500400252962
"204",0
"205",0.00802600609419912
"206",0.0983691746528462
"207",0.0290167898403606
"208",0
"209",0.103386195437221
"210",0.0424706363312194
"211",0.383773595563721
"212",0.000206871334778147
"213",0
"214",0.00587149361154582
"215",2.01437856395259e-08
"216",0.606425457329656
"217",0.0522131373325201
"218",0.00749042495596441
"219",0
"220",0
"221",0
"222",0.660074440890164
"223",0.043715395415196
"224",0.23992621633244
"225",0.00996954402348016
"226",0
"227",0.0496054450710183
"228",0.0107772076773175
"229",0.253670139595988
"230",0.0229459869796176
"231",0
"232",0.675247071626082
"233",0.0698045532831074
"234",0.0102252089281238
"235",0.00740848634018298
"236",1.13528544343211e-08
"237",0.0763140371787472
"238",0
"239",0.000232204944435543
"240",0.000560835639852431
"241",0.0385602902276881
"242",0.0238338163712667
"243",1.34336985979644e-14
"244",2.93987056920741e-13
"245",0.139493531561219
"246",0.201403006660253
"247",0.00698753444466926
"248",0.014682800970111
"249",0.000464348661471825
"250",0.00689031141318885
"251",0.000135305869765734
"252",0.00614743790567884
"253",1.00343434672467e-08
"254",4.56491789089242e-05
"255",0.0041363226810085
"256",0
"257",0.206604929506399
"258",0.0031781024595221
"259",0
"260",0
"261",0
"262",1.2124405193159e-06
"263",0.001564094189905
"264",0.0809085065325422
"265",1.29185438246804e-06
"266",0
"267",4.66203462262671e-05
"268",0.0232809704351951
"269",0.0038085827480534
"270",8.85357025049993e-05
"271",0.0218992107129696
"272",0
"273",9.62416559990853e-06
"274",0.329188464162661
"275",0.107617904791316
"276",0.0634055141071348
"277",0.127539329390923
"278",0.0843076814911201
"279",0.245827234809006
"280",0.00182332561911724
"281",0.00945825592813077
"282",0.013603241717237
"283",0.00244593312271801
"284",1.73992278013069e-05
"285",0.28804811632266
"286",0.0286396565151401
"287",0
"288",7.59557945021472e-05
"289",0.161006134736186
"290",0.0300207875339132
"291",0.00116576660287437
"292",0.0279928053022376
"293",0.000288286915383518
"294",0.00154575405920609
"295",2.9127056387912e-06
"296",0
"297",3.47482373175279e-05
"298",0.000994589113557653
"299",3.82915921193216e-12
"300",0.0200216412782326
"301",0
"302",0
"303",0.0941896148248585
"304",0.000200631416088393
"305",1.05257680349524e-09
"306",2.0592261229524e-10
"307",0.00133086614036815
"308",0.0152552138206171
"309",0.00278211140513229
"310",0.000385897882487329
"311",8.8128423447742e-09
"312",4.16906628109004e-08
"313",0.000507125041554923
"314",0.0010115367070509
"315",0.000874364459557908
"316",5.30876590132401e-07
"317",0.0759943734234161
"318",3.25373061826895e-12
"319",0.00220756837481217
"320",0.0222231988455694
"321",1.95468918828823e-08
"322",2.60180911036967e-05
"323",1.25567112263525e-10
"324",0
"325",0.000766742344987303
"326",0.0178488731763293
"327",3.73436703426933e-05
"328",0.00110881427343834
"329",1.24275155499731e-07
"330",2.38436397570485e-06
"331",0.0410235750443309
"332",0
"333",0.000207924279567506
"334",3.4190488752639e-05
"335",2.32054475635124e-09
"336",0.0836300656830273
"337",0
"338",0.000774392031867799
"339",0
"340",0.190441134211744
"341",9.25610304174374e-05
"342",0
"343",4.98838753394404e-05
"344",0
"345",7.82138720456516e-09
"346",0.000394847494361361
"347",0
"348",6.37968955441437e-09
"349",3.12316724555561e-05
"350",0.024885798421144
"351",0.196057177440524
"352",0.00595792510548832
"353",6.30860919059728e-11
"354",0
"355",0.0223054393154228
"356",0.00014057556363456
"357",0.000534183324696236
"358",0.0262764815735071
"359",0.00122152431619083
"360",3.81703891827456e-08
"361",0.000458017859139903
"362",1.01629815674187e-12
"363",0
"364",0
"365",0.00357731339552525
"366",0.0870585616812004
"367",0.000316327571613484
"368",0.21669091533976
"369",0.00375964966590281
"370",4.91648995848415e-07
"371",0
"372",2.22044604925031e-16
"373",0.00200875151118185
"374",0.000256613853745202
"375",4.82211826025036e-10
"376",3.72932362768807e-09
"377",2.52083919294321e-08
"378",2.34354464723197e-08
"379",0.0101643165927959
"380",4.14805656490103e-09
"381",0
"382",6.36779518004005e-12
"383",0
"384",3.37635309111128e-06
"385",0
"386",1.96525158047134e-06
"387",0
"388",0.0852207741527766
"389",1.61752078041699e-05
"390",0.000185116515760031
"391",0.00373626890727474
"392",0.00149837016628163
"393",1.06541610261912e-05
"394",0
"395",3.19266164505727e-07
"396",3.55810044490035e-05
"397",9.90260906917895e-05
"398",6.10622663543836e-14
"399",3.31817758936204e-06
"400",0
"401",2.93379430400531e-05
"402",1.02510279154089e-08
"403",2.44985086661487e-08
"404",0
"405",0
"406",0.421174205134649
"407",5.38511246483964e-07
"408",0.00276737674857908
"409",0.000239063745717139
"410",0.000623949454393591
"411",0.0126952867435953
"412",6.38460391988449e-06
"413",1.49324996812084e-12
"414",8.88344551475129e-06
"415",0.00274424332210921
"416",0
"417",0.487152131108268
"418",0.00485066090053821
"419",4.93525596167999e-07
"420",0
"421",0.00493965523520479
"422",0.935795662003462
"423",0.0322192736869182
"424",0.0407496465183705
"425",0.0292188148148701
"426",0.0365589349903455
"427",0.0193206809755877
"428",0
"429",5.31642269652188e-07
"430",0.0031562886490113
"431",0.205746800176921
"432",0.223214953892478
"433",0.0384950869335252
"434",0
"435",1.45908659937577e-05
"436",0
"437",0.209138146212678
"438",2.31080055090871e-09
"439",0.0620731610045729
"440",0
"441",7.06126379590444e-10
"442",2.06390460277817e-13
"443",0
"444",4.13128675241792e-05
"445",1.15241149956091e-13
"446",8.98854317399334e-06
"447",0.000230622939435987
"448",0
"449",0.735766762041679
"450",2.05532518782192e-08
"451",3.40187387189994e-05
"452",4.27175633643806e-07
"453",0.000413795513493409
"454",0
"455",0.000192339311684719
"456",0
"457",0
"458",0.00122043577501885
"459",0.0285423434041336
"460",1.78752126733794e-06
"461",0.00293102886967789
"462",0.000117247167022994
"463",1.05098201252929e-08
"464",0.0217661327084554
"465",0.296548392319514
"466",2.741095474601e-06
"467",8.95720157934043e-07
"468",0
"469",0.00124183011858836
"470",0.254092374200211
"471",0.244510584041164
"472",0.00478717248403726
"473",0
"474",1.70083618111772e-06
"475",0.108041436936702
"476",0
"477",0.00201763286736034
"478",0.000500521862464409
"479",3.95130476116279e-08
"480",2.19818960822682e-05
"481",0.000642040858971349
"482",0.0667003810116902
"483",0.000213967197277176
"484",0.00200407165963534
"485",1.01337310953742e-06
"486",1.59471980065717e-09
"487",2.26075269615933e-10
"488",4.16123664945811e-05
"489",3.66184860212115e-12
"490",2.95855340226581e-10
"491",0.000404863072953843
"492",1.4569208861559e-07
"493",3.566149042733e-09
"494",5.0645726312748e-06
"495",1.15084378645713e-05
"496",0.000408699704655624
"497",5.33400469016065e-07
"498",5.10221566190072e-05
"499",0.00408796812418966
"500",0
"501",4.93189158020657e-05
"502",1.65185791711764e-08
"503",5.78431776987465e-06
"504",0.00845851030703904
"505",2.01017343770538e-07
"506",1.11022302462516e-16
"507",1.53358437060547e-11
"508",0
"509",0
"510",2.96779392050528e-06
"511",0.000529451195239616
"512",1.23654197992096e-10
"513",4.44089209850063e-16
"514",2.70231836907442e-10
"515",0
"516",6.20448718524624e-06
"517",1.43274281327876e-12
"518",0.00158663788543234
"519",5.9942267469415e-05
"520",1.20093104460928e-07
"521",9.73043867702472e-12
"522",7.13319815659474e-07
"523",0.000632338984999814
"524",0
"525",0.00183557923587885
"526",1.28119737041743e-13
"527",0
"528",0.000321104774366199
"529",9.30293964085394e-09
"530",2.70397109491949e-05
"531",4.27170887551398e-09
"532",9.29512280845035e-06
"533",1.74247193451826e-07
"534",0
"535",2.58171043432398e-08
"536",2.3104440582955e-10
"537",7.10759052990895e-06
"538",3.91656883109714e-05
"539",0.000179864167989652
"540",0
"541",0
"542",0.000750764444831131
"543",2.75119527159973e-09
"544",0.000702488584485628
"545",0.0113171339722125
"546",8.25715858832066e-06
"547",2.04572537543246e-06
"548",4.89588385010897e-06
"549",3.16935699906651e-10
"550",1.07837799523391e-06
"551",3.09568470857613e-09
"552",0
"553",4.72285780483972e-08
"554",0
"555",2.22044604925031e-16
"556",5.15538201018018e-08
"557",6.30606677987089e-14
"558",0
"559",6.45573594582061e-10
"560",1.37002995774793e-05
"561",2.25677282639225e-07
"562",0.000589882664301156
"563",3.92292467399358e-08
"564",8.09130540346814e-13
"565",0
"566",0
"567",3.61932706027801e-14
"568",1.11022302462516e-16
"569",0
"570",0.00104280305620974
"571",0
"572",0
"573",4.65738558830253e-13
"574",1.34336985979644e-14
"575",0
"576",0
"577",0
"578",4.57642812534687e-10
"579",3.05311331771918e-13
"580",5.45306875254781e-06
"581",9.49219591817041e-11
"582",9.26302460135808e-06
"583",2.62927457583828e-11
"584",2.70983369077271e-09
"585",1.96102100114004e-08
"586",4.44089209850063e-16
"587",2.33146835171283e-15
"588",0
"589",0.000169889689230041
"590",2.40059898626299e-08
"591",4.42229489694412e-08
"592",0
"593",6.86367629398887e-10
"594",6.80566714095221e-14
"595",1.15967363206737e-05
"596",0
"597",5.95381521861782e-11
"598",7.14279746460988e-11
"599",1.8775341281696e-09
"600",0
"601",6.95885578050337e-08
"602",0
"603",0
"604",2.29893153402827e-06
"605",1.89028893937682e-05
"606",0
"607",0
"608",1.31630565285423e-05
"609",1.54321000422897e-14
"610",0
"611",0
"612",1.26988086712743e-10
"613",0
"614",0
"615",0
"616",0
"617",0
"618",0
"619",0
"620",2.38078368131056e-08
"621",3.64908616001802e-06
"622",0
"623",0
"624",0
"625",0
"626",0.00118458236098917
"627",0
"628",1.45083944858015e-12
"629",1.95595761809386e-11
"630",4.80319197049273e-06
"631",9.02949680026133e-07
"632",5.45552281128181e-09
"633",0
"634",0.115838361989305
"635",0
"636",0
"637",0
"638",0
"639",0
"640",0
"641",0
"642",0
"643",0
"644",0
"645",0
"646",0
"647",0
"648",0
"649",0
"650",7.7410139914913e-05
"651",0
"652",0.0469276850145539
"653",0
"654",0.0528137035766525
"655",0.18079697638371
"656",0.300057830272576
"657",0.0461215483838532
"658",2.72271094559073e-12
"659",0
"660",0.0656560798902185
"661",0
"662",5.11438751893412e-06
"663",0
"664",0
"665",0
"666",1.24958754454951e-09
"667",0
"668",0
"669",2.07509343042034e-10
"670",0.00996127766416877
"671",0
"672",1.48014329459656e-07
"673",0.0285275347698326
"674",0
"675",0.314015275224626
"676",1.92442728419451e-11
"677",0
"678",0
"679",0.221735231040061
"680",0.453238757083134
"681",0
"682",0
"683",0
"684",0
"685",0.000941939878371212
"686",0.0848906397919329
"687",0.951067103801713
"688",0.105859771769529
"689",0.0749920719752842
"690",0.0197213302043173
"691",0.000120906916020624
"692",0
"693",0.00771181416356481
"694",0.0660946453085072
"695",2.63256166865844e-08
"696",0.00508358963860955
"697",0.00214310706233101
"698",0
"699",0
"700",0
"701",0
"702",0.0147809074540028
"703",0.00393972776963258
"704",0.0678536178037987
"705",4.91474523205415e-05
"706",0
"707",0.0002961638218556
"708",0
"709",0
"710",0
"711",0.0198177169936579
"712",0.0284174615581601
"713",0.000136493860144915
"714",3.83298025541379e-08
"715",0.00256864853390903
"716",0.0765609182639998
"717",0.024415511045809
"718",0.263039674082338
"719",0.218919380121344
"720",1.49989155199259e-05
"721",0
"722",0
"723",0.295387158920126
"724",0
"725",7.08971319429708e-08
"726",0
"727",0
"728",1.12830043175194e-06
"729",0.0518139303300229
"730",0
"731",0.135825396240322
"732",9.48595297867172e-08
"733",0.326523676729035
"734",6.74956741488764e-05
"735",0.000265020593152476
"736",0.0610155855181247
"737",0.327548158637925
"738",0.0358504664685454
"739",0.00171206663930723
"740",0.111723729961266
"741",0
"742",2.5597888609119e-05
"743",0.0545680682595071
"744",4.00124378074906e-13
"745",0.000473589862968304
"746",0.000291837011865415
"747",0.0112385625129657
"748",4.19612566915362e-10
"749",0.0575119440088261
"750",0.0480406294147923
"751",0.0253264143215536
"752",0.853461703780829
"753",0.119564463931289
"754",3.77537430207298e-08
"755",0
"756",0
"757",2.75514306924407e-07
"758",0.00304352833073784
"759",0.121517500118479
"760",0
"761",0
"762",0
"763",4.79567274780379e-10
"764",1.43706949944367e-05
"765",0.000267252549222774
"766",4.46780167540073e-05
"767",0.10315091314655
"768",9.98324787282456e-08
"769",0.000300427761563915
"770",4.84057347799327e-05
"771",0.0133748949238642
"772",0.617827117658724
"773",4.5186532293684e-10
"774",0.00167587314604922
"775",0
"776",0.0961335053067751
"777",0.0341932623639039
"778",0.590479769202334
"779",0.00141354810793426
"780",0.0533623886787863
"781",0.510376298595949
"782",0
"783",0.00218735556511673
"784",0.114198780974355
"785",0.000475101968236857
"786",0.396364679530159
"787",0.137332931631209
"788",0.248763890637818
"789",0.548992082258227
"790",0.0907269685959197
"791",0.0526014055194994
"792",3.28393012782868e-09
"793",0.00219171101590698
"794",9.92791032716767e-08
"795",0.691877834260015
"796",0.00151737820399445
"797",0
"798",0
"799",0
"800",3.97349458336471e-06
"801",0.0244427619672023
"802",0.0424371632463393
"803",0.00608391039116651
"804",0.0217303893446869
"805",0.0689078289116232
"806",0.793707903685489
"807",0
"808",0
"809",1.11022302462516e-16
"810",0
"811",0.00023629779264589
"812",0.0145470765129545
"813",0.000218868586176257
"814",0
"815",1.5377699114083e-11
"816",0.124537361103072
"817",0.122211797343987
"818",0.421728308597776
"819",2.90657418549056e-05
"820",0.0611318445643114
"821",0.214843255059919
"822",0.0743758395437847
"823",0.0685353500692329
"824",0
"825",0.130301208550431
"826",0.183129538984968
"827",0.575766856262199
"828",0.152518853079407
"829",0.0353840400409107
"830",1.41475257930956e-06
"831",0.20997890616377
"832",0.0489016457285274
"833",0.023644078598962
"834",0.795748067854155
"835",0.13109581731111
"836",0.0484001925136905
"837",0.417196776555456
"838",0.767943640508441
"839",0.106209112997721
"840",0.803923881718222
"841",0.0565408204330773
"842",2.82699752592874e-05
"843",5.10702591327572e-15
"844",0.0136770664873369
"845",0.099757917612577
"846",0.055192237362554
"847",0.623835923887523
"848",5.51766445866519e-07
"849",0.804954566597579
"850",0.679267383071249
"851",0.0195426611633763
"852",0.00680228998175525
"853",0.800369191942759
"854",0.0577186894254355
"855",0.0101029978486442
"856",0.0126941311086125
"857",0.0615644865198066
"858",2.7588382657262e-06
"859",0.00581080693497937
"860",0
"861",0.00518271457182817
"862",0.248087517267169
"863",0.883242649742599
"864",0.864500345748119
"865",0.115135992530452
"866",0.641614083332039
"867",0.65082500816308
"868",0.0734702079396539
"869",0.00320546313191095
"870",0
"871",0.0112992093431792
"872",0.328475298804153
"873",0.00633342385293267
"874",0.0148523890384991
"875",0
"876",0.115423070951343
"877",0.481504420712313
"878",0.00625369762806249
"879",0.635713354393862
"880",0.895368871837627
"881",0.403066881782577
"882",0.0843507579281622
"883",0
"884",0
"885",0.420126577883692
"886",0.0682459029105861
"887",0.0406707327286389
"888",2.27554641796246e-11
"889",0.018085724062032
"890",0.193107337103375
"891",0.0500478158438997
"892",0.363372579417072
"893",0.138666870184201
"894",0.0202721280680107
"895",0.0217108558020073
"896",0.642588506597486
"897",0.211425638155127
"898",0.858344250209505
"899",0.0883385214009038
"900",0.0687973639143243
"901",0.405693296042425
"902",5.40442084528969e-07
"903",0.206334950949454
"904",0
"905",0.0132696413944717
"906",0.319379927766291
"907",0.00085689759965335
"908",1.14110609850115e-10
"909",0.0121486391389444
"910",1.11807041331957e-05
"911",0.361771730716676
"912",0.00071885322015286
"913",0.42684341409576
"914",0.0857270052881615
"915",0.0990809192697144
"916",0.00699640875530982
"917",0.304542983629164
"918",0.00754206750973585
"919",0.174679861375108
"920",0.32595237456075
"921",6.24219621881972e-05
"922",0.506812418274844
"923",0.000216498890016625
"924",0.0108817435852326
"925",5.22915044598449e-14
"926",0.0040890964582686
"927",0.00337108984644829
"928",0
"929",0
"930",0.133968244979836
"931",0.254685291534292
"932",0.236468286831467
"933",0.0375689256367058
"934",0.130597389903227
"935",3.78586051397178e-14
"936",0.0314768707408436
"937",0.0121714062776612
"938",2.53378873438237e-10
"939",7.60958746015561e-08
"940",0.489315173419976
"941",0.0132960464455143
"942",0.160427789944083
"943",0.0733874743354481
"944",2.46529861858136e-06
"945",0.60888362882304
"946",2.02060590481778e-14
"947",0.0764367619928821
"948",0.115799124799901
"949",0.0019324937120806
"950",0
"951",0.000175982779210382
"952",0.0024206744997064
"953",0
"954",0.192870038597533
"955",0
"956",0
"957",5.99331695383398e-12
"958",0
"959",0
"960",0.000202142760343027
"961",1.49500625720167e-05
"962",3.33066907387547e-16
"963",4.02734840565522e-06
"964",3.8918379630104e-10
"965",1.08547043575768e-06
"966",0.00615197926952715
"967",6.75220128587561e-07
"968",0
"969",2.57469248143849e-08
"970",7.1276318180935e-14
"971",1.87805434537225e-08
"972",0
"973",0.00212536059279478
"974",0
"975",0
"976",0
"977",2.03227638496672e-05
"978",0
"979",0
"980",0.0900282438666111
"981",0.0610326422876321
"982",0.0387350076011513
"983",0.106886188135424
"984",0.533986887888213
"985",0.00353726494908468
"986",0.00700481367094874
"987",0.407423255735968
"988",0.447533991530642
"989",0
"990",0.193889086669442
"991",0.0387393536871043
"992",6.373885821509e-05
"993",0.251294269435444
"994",0.417134744538384
"995",0.0385923451066271
"996",0.0524030374982029
"997",0.00538084387152893
"998",0.0114692025257572
"999",0.140876119904427
"1000",0.0010838052798906
"1001",0.197206860185467
"1002",0.00177234653166258
"1003",0.00579413216723668
"1004",0.128008579568939
"1005",0.0724402668178892
"1006",0.00295659701314344
"1007",0.00193889016777593
"1008",3.43234076161103e-07
"1009",0.00356098730395804
"1010",0.193243770771943
"1011",0.0959871362676985
"1012",0
"1013",0.00525575229335107
"1014",0.407633306037916
"1015",0.207051442312449
"1016",0.00147519690064146
"1017",0.113939275676498
"1018",0.0023052236978558
"1019",1.7067796065362e-08
"1020",0.00695252194897444
"1021",0
"1022",0
"1023",0
"1024",0
"1025",7.11295466970796e-11
"1026",0
"1027",0.0198954272468439
"1028",0.0170391531940963
"1029",0.321076324283124
"1030",0.259811236185349
"1031",0
"1032",0.0305110012437217
"1033",0.126373800500592
"1034",0.173438679488632
"1035",0.0526343864071301
"1036",0.425500497951371
"1037",0.871893837639157
"1038",0.159891809213407
"1039",0.551002916685413
"1040",2.24942287019303e-12
"1041",0
"1042",0.965720695781459
"1043",0.469822594889327
"1044",0.197685782771876
"1045",0.0531539345459678
"1046",0.000132228996426065
"1047",3.33066907387547e-15
"1048",0.41144114456695
"1049",0.665987387972075
"1050",0
"1051",2.01897387697159e-11
"1052",0.524343827569063
"1053",0.116496573483625
"1054",0.0680390991345315
"1055",0.984707406915086
"1056",0.236864180564883
"1057",0.134381263097253
"1058",0.0678797003989681
"1059",0.344566837800767
"1060",0.967517753530754
"1061",0.825760230077166
"1062",0.483332084450521
"1063",0.000316087686179412
"1064",0.717200017606321
"1065",0.852166406609397
"1066",0.492146718091244
"1067",0.000109105637416285
"1068",0.634517453806705
"1069",0.129665356256517
"1070",0.575453849973222
"1071",0.0596830211465349
"1072",0.631589310973838
"1073",0.298127310340759
"1074",0.0189255028499474
"1075",9.41272536580939e-08
"1076",0.410148225287951
"1077",6.91754984644133e-05
"1078",0
"1079",0.00809754773804849
"1080",0.0190006151001679
"1081",0.111695755248413
"1082",0
"1083",0
"1084",0.589464502456688
"1085",0.0141890457929208
"1086",0.0285562923662303
"1087",5.03780583938074e-06
"1088",0.00862490503123703
"1089",0.41229472760964
"1090",0
"1091",0.000334965188187764
"1092",0.00555444529931348
"1093",0.00268590069113983
"1094",0.0122983986790178
"1095",0.0165683015358696
"1096",0
"1097",0
"1098",0.806016447248768
"1099",0.683243932825775
"1100",0.588192373680775
"1101",0.00546695235120642
"1102",0.824655005653796
"1103",0
"1104",0.000616152647857526
"1105",0.111467077943417
"1106",6.20177406651656e-07
"1107",0.632309222930228
"1108",3.90627621360551e-08
"1109",0.00630348745568288
"1110",0.00737282466729361
"1111",0.109959363115917
"1112",0.0565970760824998
"1113",0.38887484030092
"1114",1.012491075425e-07
"1115",0
"1116",0.0703809324757629
"1117",0
"1118",3.2555678914914e-06
"1119",0.000611981334297851
"1120",0.0224004090736991
"1121",0.0041935852958751
"1122",0.110442139564496
"1123",0.13324670829586
"1124",0.00032282340632106
"1125",6.56255750851598e-05
"1126",0.0043808296500325
"1127",0.085880564961811
"1128",2.43796380512418e-05
"1129",0.0101650776876675
"1130",0
"1131",0
"1132",5.24207566243717e-10
"1133",0.129925132931433
"1134",0
"1135",0
"1136",0.000119090666414912
"1137",0
"1138",0.270654696214776
"1139",0
"1140",0.0166533549674497
"1141",0.250556639121638
"1142",0.0985217387201406
"1143",1.22124532708767e-15
"1144",0.0794624246043139
"1145",0.326155421131737
"1146",0.0447414396996741
"1147",0.0841153989139659
"1148",0.170977311946611
"1149",5.97954685765956e-09
"1150",0.143506182380476
"1151",0.178681438727925
"1152",0.307229846547538
"1153",1.13136997581531e-06
"1154",0.193208015292922
"1155",0.121718191708275
"1156",0.000240451966543098
"1157",0
"1158",0.00328112191377417
"1159",0.00471276047853009
"1160",0
"1161",0.860418199110273
"1162",0
"1163",0
"1164",0
"1165",0.196247909416589
"1166",0.0184873829128105
"1167",0.0479202466467039
"1168",0
"1169",0
"1170",0.0670576930619488
"1171",0.132782324569683
"1172",0.0078608321460194
"1173",0
"1174",0.582081728130221
"1175",0.052018230885877
"1176",0
"1177",0
"1178",3.38851234199522e-05
"1179",4.33510153330374e-08
"1180",0.178277023954239
"1181",0.0321515822097633
"1182",0.0620964586666972
"1183",1.2469883926558e-06
"1184",0.0186945922590935
"1185",0.00117977451284723
"1186",0
"1187",0.000454465743954469
"1188",0
"1189",0.241987147902001
"1190",0.20613605021436
"1191",0.0160693883003187
"1192",2.96991618452536e-05
"1193",9.14161739640207e-06
"1194",0
"1195",0.0814692550861842
"1196",0.000883173874107968
"1197",0.015210662406655
"1198",0.00199559735308763
"1199",0.147626392341308
"1200",0.719917475497894
"1201",0.0918351418695161
"1202",2.97684396022291e-08
"1203",0
"1204",1.62461766262112e-09
"1205",0.426979691042289
"1206",2.94054297903523e-05
"1207",0.00405466790514819
"1208",0
"1209",2.18713935851156e-14
"1210",0.00304050075192686
"1211",0
"1212",0
"1213",1.67421632113474e-13
"1214",0
"1215",0
"1216",0
"1217",0
"1218",1.10893960680869e-10
"1219",1.86517468137026e-14
"1220",0
"1221",0
"1222",0
"1223",3.94793198132959e-10
"1224",1.66533453693773e-15
"1225",0
"1226",0
"1227",0
"1228",0.00700405831236495
"1229",9.12334033432716e-05
"1230",5.07947779393447e-08
"1231",0
"1232",0
"1233",0
"1234",0
"1235",0
"1236",0.664814709247125
"1237",0.0335627640247376
"1238",8.93404030277711e-06
"1239",0.0379714344765969
"1240",1.44205730506775e-05
"1241",0
"1242",5.14020741012589e-05
"1243",0
"1244",0.0058148347503888
"1245",0.371395681696456
"1246",0.130922019831826
"1247",0.00775991444343671
"1248",0.00260255012791366
"1249",7.26640969617165e-12
"1250",0
"1251",6.66133814775094e-16
"1252",0
"1253",0.149286966135177
"1254",0.113267654633183
"1255",0.000657762299685394
"1256",0.000399079956131865
"1257",0
"1258",0
"1259",0
"1260",0.00341056663754891
"1261",0.0569542621692444
"1262",0.0394793763763051
"1263",0.0120702597262529
"1264",0.907328615970955
"1265",0
"1266",0
"1267",0
"1268",0
"1269",0
"1270",0
"1271",0
"1272",0
"1273",0.000489191151473722
"1274",1.73721959040307e-09
"1275",0
"1276",0.0579514812867417
"1277",0
"1278",0
"1279",0
"1280",0.698758648029347
"1281",0.00369135463139647
"1282",7.76742052033264e-06
"1283",0.001844378121862
"1284",0.000307050810994802
"1285",0.187879453499412
"1286",0.0236691215865357
"1287",0.013724480994984
"1288",0.596451974937759
"1289",6.64822127927067e-05
"1290",0
"1291",0
"1292",0
"1293",0
"1294",0
"1295",0.0703692828477742
"1296",0
"1297",0.0511534178567766
"1298",0.00466645929935694
"1299",0.0404608683162216
"1300",0
"1301",0.00795155850044338
"1302",0.0112022062369351
"1303",4.64441294578677e-06
"1304",0.00317121802650622
"1305",0.402024445171346
"1306",0.193568829143245
"1307",0.221892892222489
"1308",0
"1309",0.00144552065451098
"1310",1.41966875777388e-05
"1311",0.00310934633318272
"1312",0.0546903502754659
"1313",0.0399819707172868
"1314",0.121929093658843
"1315",0.00197655713625078
"1316",0.00204803042053137
"1317",0.00698654155889078
"1318",0
"1319",0
"1320",0
"1321",0
"1322",2.47165633645574e-05
"1323",0.617760428284567
"1324",0
"1325",0
"1326",0
"1327",0.0333307643109456
"1328",0
"1329",0
"1330",1.11429088988091e-05
"1331",0.0666565592444058
"1332",0
"1333",3.30402372128447e-12
"1334",1.93123474574453e-05
"1335",0.248788322655816
"1336",9.63481097342456e-05
"1337",2.99237753835779e-05
"1338",0.000571768452109045
"1339",0.00353617093236713
"1340",0
"1341",2.97407592211307e-05
"1342",0.0857487059435288
"1343",0.282880369988463
"1344",0.146475458023203
"1345",7.00760875105289e-07
"1346",0.0564590026819488
"1347",0.00217428306650369
"1348",0.00928413806079453
"1349",0
"1350",0
"1351",1.83988631552445e-07
"1352",0.000810804680792088
"1353",0.0459054559747152
"1354",0.0379045330947745
"1355",0.0023288459485814
"1356",0.0199251166356599
"1357",7.04196533307666e-08
"1358",0.13254610490729
"1359",1.69571643131583e-05
"1360",0.0415664466563066
"1361",1.13242748511766e-14
"1362",0
"1363",0
"1364",0
"1365",0.4518619527418
"1366",0.0609418237279503
"1367",0.017796435342436
"1368",0
"1369",0
"1370",0
"1371",0
"1372",0
"1373",0.346959980451128
"1374",0.00275824679692838
"1375",0
"1376",0.0399675696213272
"1377",0
"1378",0.000268424877555518
"1379",0.310080006019889
"1380",0.139105784578532
"1381",0
"1382",0.00234802658361655
"1383",0.0532747092042118
"1384",0.0175330879718084
"1385",0.000991569499574019
"1386",0.0675559297782342
"1387",0.339679924134307
"1388",0
"1389",0.0130607307686512
"1390",0
"1391",0
"1392",8.60622684228929e-12
"1393",0
"1394",0.217407572972492
"1395",0
"1396",0
"1397",0.624007580600971
"1398",0.279747697134246
"1399",0
"1400",3.26638815995040e-09
"1401",0
"1402",0.200476494538594
"1403",0.00926675110263808
"1404",0.00718961544880048
"1405",0.016536083829035
"1406",0.00423035002176542
"1407",0.125820041589132
"1408",0.149821264514369
"1409",8.58746970089364e-06
"1410",0.00474574523835858
"1411",3.75375956286339e-05
"1412",0
"1413",0
"1414",0
"1415",0.180950385339837
"1416",0.00161313617399839
"1417",0.140922025631528
"1418",0.320609684866146
"1419",0.00496987075164024
"1420",0.0216833552824068
"1421",0.000202537568471661
"1422",0.0113519695943043
"1423",8.44726261854944e-05
"1424",0.129207722967501
"1425",0
"1426",0
"1427",0.382332545093832
"1428",0.00715919770283557
"1429",0.000290680334950388
"1430",0
"1431",0
"1432",0
"1433",1.11022302462516e-16
"1434",0
"1435",0.270504252547428
"1436",0.292346955687681
"1437",0.433952116281672
"1438",0.0996910207127395
"1439",0.0903043625203531
"1440",0.0495795830119405
"1441",0.453787188899933
"1442",0
"1443",0
"1444",0
"1445",1.0333655927619e-06
"1446",6.12514952536003e-07
"1447",0.0162877237997193
"1448",0
"1449",0.000222499604118465
"1450",0
"1451",1.80718522668766e-06
"1452",0
"1453",0
"1454",0
"1455",0
"1456",7.67791831224329e-08
"1457",0.275428605073493
"1458",3.49697542261218e-05
"1459",0
"1460",2.3482205069314e-10
"1461",6.64934570548947e-06
"1462",0
"1463",0.0214056119111
"1464",5.78645764637287e-09
"1465",1.28297443269254e-06
"1466",0
"1467",4.72528682848861e-11
"1468",0
"1469",0
"1470",3.67446939542049e-09
"1471",0.000453180024273636
"1472",2.27444196165827e-06
"1473",0.00434732154358874
"1474",1.7874590696465e-14
"1475",0
"1476",0
"1477",0
"1478",0.0332721893725239
"1479",0
"1480",0
"1481",0
"1482",0
"1483",2.07400763230225e-12
"1484",9.71215037492978e-06
"1485",4.36154445893067e-11
"1486",0
"1487",0
"1488",0
"1489",0
"1490",0.00116614574817808
"1491",0
"1492",0
"1493",0
"1494",0
"1495",0
"1496",0
"1497",1.0493828028757e-11
"1498",0
"1499",0
"1500",0
"1501",0
"1502",0
"1503",0
"1504",0
"1505",0
"1506",0
"1507",5.147443428688e-05
"1508",7.72428086605048e-05
"1509",0
"1510",3.5527136788005e-15
"1511",0
"1512",0
"1513",0
"1514",0
"1515",0
"1516",0
"1517",0.322840589638183
"1518",0.543667982440109
"1519",0.374570068709073
"1520",0.919398581018025
"1521",0.547416097945867
"1522",0.0431465101590432
"1523",0
"1524",0
"1525",0.14483932931735
"1526",0.273956026009083
"1527",0.186384110033474
"1528",0
"1529",0.19876810939473
"1530",0
"1531",0.60095059512433
"1532",0
"1533",0.186457440698088
"1534",0
"1535",0
"1536",0
"1537",0.00213772908701171
"1538",0.0845702996371746
"1539",0
"1540",7.07889533468897e-06
"1541",2.08817851898857e-10
"1542",0.00750457775111935
"1543",0.00448031445903996
"1544",8.30400431417466e-07
"1545",2.02060590481778e-14
"1546",1.59673473332234e-08
"1547",1.6324752660779e-10
"1548",0.215927649696314
"1549",0.934956486553681
"1550",0.000626522420926534
"1551",0.750045959937736
"1552",0.000381352745399854
"1553",0.321542040770512
"1554",0.00768308489308767
"1555",0
"1556",0
"1557",0
"1558",0.0177548235314915
"1559",0
"1560",7.27898130170601e-06
"1561",0.00590704632547112
"1562",0.437503210928857
"1563",0.0279970893970291
"1564",0.00148983377383438
"1565",0
"1566",0
"1567",0
"1568",0.000207402906481802
"1569",0.0728790819618856
"1570",0
"1571",0
"1572",0.0368746108940365
"1573",0.0905792977516008
"1574",0.0982903568893672
"1575",0.0072481781738456
"1576",0.333605046811015
"1577",0.0117268553553305
"1578",0.150050520939321
"1579",0.00102730585633815
"1580",0.656218362342654
"1581",0.177008292442348
"1582",0.00919219371660263
"1583",0
"1584",0
"1585",3.08758760780847e-08
"1586",0
"1587",0
"1588",0.687906320361664
"1589",1.00227762247496e-05
"1590",9.65894031423886e-15
"1591",0.112176906489758
"1592",2.3787116123497e-06
"1593",0.0228906385057168
"1594",0
"1595",0.672260609100439
"1596",0.110889658596997
"1597",0.00173271223806448
"1598",0.202778512808349
"1599",0.221923802604981
"1600",0.0126814412968292
"1601",6.26491397325291e-05
"1602",0
"1603",0.000981991509131031
"1604",0
"1605",0.000694414405219557
"1606",0.446527343421407
"1607",0.0639785826788646
"1608",0
"1609",0.287248893997726
"1610",0
"1611",0
"1612",0.00018577614747084
"1613",0.216017941862444
"1614",0.00168033407750079
"1615",0.456358533494117
"1616",4.6914163786993e-05
"1617",0.0475203842404395
"1618",0.00326976437750592
"1619",0
"1620",0
"1621",0
"1622",0
"1623",0.00110815080270887
"1624",0.771372741211119
"1625",0
"1626",0.0479160003608603
"1627",0.0430346210510741
"1628",0
"1629",1.49819144756869e-07
"1630",0
"1631",0.226842456099348
"1632",0.0482356558725197
"1633",0.0714126353030926
"1634",0
"1635",0.17845821220157
"1636",0
"1637",0.851434189514824
"1638",0.0566835853271024
"1639",0.0001464192592322
"1640",0
"1641",0
"1642",0.264754152806937
"1643",0
"1644",0.0152742036653103
"1645",0.0185861045255952
"1646",0.109151918728949
"1647",0.000143219649581194
"1648",0.000663068634377817
"1649",0.0318288933955909
"1650",0.00680565392264609
"1651",0.293626098702265
"1652",0.000774413463625279
"1653",5.90853427012705e-05
"1654",0.11723497169736
"1655",0
"1656",2.95278689681489e-05
"1657",0.0191426780021924
"1658",0.465213226600711
"1659",0.183355514804275
"1660",4.09609635872998e-05
"1661",0.214441082719424
"1662",0
"1663",0
"1664",0.0711003013867553
"1665",0
"1666",0.34905312598582
"1667",0.406619762156999
"1668",0.219065996469854
"1669",0.000155487673710986
"1670",0
"1671",0.0574652780765394
"1672",0.39638713521184
"1673",1.50025336598247e-09
"1674",0.0499469640579718
"1675",0
"1676",0.253447675820723
"1677",0.735036517003398
"1678",0.000285352524043714
"1679",0.000448688989855506
"1680",0.824986142139437
"1681",0
"1682",0
"1683",0.665858873449501
"1684",0.175445069718765
"1685",3.01030977922778e-10
"1686",0
"1687",0.0209875259764277
"1688",0.447320664612352
"1689",0.0413292246397328
"1690",0.131571996808723
"1691",0.00817435191313076
"1692",0.323156815794325
"1693",0.340902604166022
"1694",0.635077630387226
"1695",0
"1696",0
"1697",0.0436946248017537
"1698",0.00207447953623707
"1699",0.572984106236032
"1700",0.409318418101647
"1701",0.652005097370952
"1702",0.000439833882851182
"1703",0.297436051403031
"1704",0
"1705",0.468208486477995
"1706",0.101441317537815
"1707",0.48761502771791
"1708",0.500642574256698
"1709",0
"1710",0.561963060133052
"1711",0.00110213082887867
"1712",0.0480266291664522
"1713",0.315562267156241
"1714",0.3383848491948
"1715",0
"1716",0.00396370879540864
"1717",0.117032289987958
"1718",0.0234028572744408
"1719",0.0852112326190659
"1720",0.112047287996296
"1721",2.8337779096943e-05
"1722",0
"1723",0.123502513078573
"1724",0.547144804834106
"1725",0.457873054453795
"1726",0
"1727",0.282161405723911
"1728",0.020183774880971
"1729",0.536680441387039
"1730",0.0137561732118748
"1731",0
"1732",0
"1733",0.179792607145399
"1734",0.231015473924724
"1735",0.161004356574523
"1736",0
"1737",0
"1738",0.0965363923180029
"1739",8.61496141567608e-05
"1740",0
"1741",0.0342378741807211
"1742",0.243384134352692
"1743",0.10551748760332
"1744",0.00553887533172337
"1745",0.0139596723606189
"1746",0.0751321454024609
"1747",0.00409396512907911
"1748",0.0739436439554407
"1749",0.280208303603569
"1750",0
"1751",0
"1752",0.0201766828205254
"1753",4.03432823700145e-05
"1754",0.289447439620515
"1755",0.00143184842136168
"1756",0.00179034773538278
"1757",0.450662635134333
"1758",0.0430182744330045
"1759",0.679720125536259
"1760",8.68537312914697e-06
"1761",0.000339259640551703
"1762",0.156755648270178
"1763",0.0227528034492728
"1764",0
"1765",0
"1766",0
"1767",0.00040569414484215
"1768",0.00149987268004781
"1769",0.720385845953291
"1770",0.000109577378075376
"1771",0.777835515384007
"1772",0.00188005759116694
"1773",0
"1774",3.27182725357034e-13
"1775",0.349885593911346
"1776",8.88178419700125e-16
"1777",0
"1778",1.07465041310206e-08
"1779",0.00996526030804534
"1780",0.0114541195237942
"1781",0
"1782",1.70974345792274e-14
"1783",0.00282376583925281
"1784",2.48273701597412e-09
"1785",0.0838925509409456
"1786",0.0320989541581161
"1787",0.000822680352857041
"1788",0.0477293007446671
"1789",0.45926463230358
"1790",1.96401006569147e-10
"1791",2.86317747288933e-10
"1792",0.010632787647505
"1793",0
"1794",0
"1795",0.00017442760820896
"1796",1.01739650804067e-06
"1797",0
"1798",0.0038240746271716
"1799",5.90290679171046e-05
"1800",0.00691359613336717
"1801",0.29882083488778
"1802",0
"1803",2.87857138125958e-09
"1804",0
"1805",0
"1806",0
"1807",0
"1808",0.023453299892368
"1809",0.0271268369327109
"1810",0.176298359694962
"1811",1.39709974700253e-08
"1812",1.27174572261968e-05
"1813",0.0410364960703241
"1814",0.00141616184638471
"1815",0.214129183233181
"1816",0
"1817",0
"1818",0
"1819",0
"1820",0
"1821",0.0033228667380939
"1822",5.61184501979284e-07
"1823",0.225967871709209
"1824",0
"1825",0.0158551015329423
"1826",0.0932127317966729
"1827",0.753695445822129
"1828",0.00974178238091961
"1829",0.00166181920588682
"1830",0.0381047317723825
"1831",0
"1832",0
"1833",0
"1834",0
"1835",0
"1836",0.0663829044829971
"1837",0.197622217889949
"1838",0.00895403211601775
"1839",0.00243372707187284
"1840",0.000824385444734399
"1841",0.000312945631506079
"1842",0.0863741050515824
"1843",0.000537543747967328
"1844",0.23483787100624
"1845",0.182617485207332
"1846",0.00120923196634493
"1847",8.43769498715119e-15
"1848",0
"1849",0.112067885088765
"1850",0.0151449103286946
"1851",0.153487901238256
"1852",0.331191540437565
"1853",0.0287736689969259
"1854",0.00107061802839781
"1855",0.210771697336631
"1856",0
"1857",0
"1858",0
"1859",0
"1860",0.00965741949944832
"1861",0.000102259419275996
"1862",0.0292994229706676
"1863",0
"1864",0.4862427302137
"1865",0.00715231614744338
"1866",0
"1867",3.27206244865597e-06
"1868",2.81477260388741e-08
"1869",0.112291037982624
"1870",0.177765644954837
"1871",0.00264168639074103
"1872",0.374054534122999
"1873",6.82597400857299e-05
"1874",0
"1875",0
"1876",0.00923609714142226
"1877",0
"1878",0.0222486884568893
"1879",0
"1880",0
"1881",0
"1882",2.62908662174155e-07
"1883",7.57409975794543e-05
"1884",0.000369701808376033
"1885",0.00763041173921686
"1886",0.0309176750620698
"1887",0.00145207454774976
"1888",0.0384022058804127
"1889",0.179987359657203
"1890",0.00122126373303311
"1891",0
"1892",0
"1893",0.00732202031872531
"1894",0.0639044164662823
"1895",0
"1896",0
"1897",0.000385196907605634
"1898",0.00198726509644231
"1899",0.000100582527527648
"1900",0
"1901",0
"1902",1.33792754652973e-10
"1903",0
"1904",0.000846006845957148
"1905",1.31702371231057e-08
"1906",0
"1907",0.00551875557807013
"1908",0.47468910880971
"1909",0.784143970962173
"1910",0.0108651246370673
"1911",0.0296627100418988
"1912",0
"1913",0.00699763578925483
"1914",0.000167961318881527
"1915",6.62378475513314e-07
"1916",0.000617989705073096
"1917",0.000476465277687632
"1918",0.200875350721899
"1919",0.00206662529160773
"1920",0.0329321184909411
"1921",0.00414713303238612
"1922",8.26640736941719e-05
"1923",0.0572095510902567
"1924",0
"1925",0
"1926",0
"1927",0
"1928",0
"1929",4.52709133513807e-08
"1930",0
"1931",0.197741805630177
"1932",0.0419258776458808
"1933",0
"1934",0.516318150161447
"1935",0.117238105418563
"1936",1.07886733526907e-05
"1937",0.0152175900097161
"1938",0.180795505405644
"1939",0
"1940",3.41699057937461e-09
"1941",0.0183714863201997
"1942",0.0794487528356644
"1943",0.048433381844929
"1944",0.212964946765499
"1945",0
"1946",0.00813016487565799
"1947",0.0229685071162357
"1948",0.00199179042211028
"1949",0.306548451045577
"1950",0.00487690605404068
"1951",0.00797775711007298
"1952",0.023699934176562
"1953",0.0201410216090071
"1954",0.389540039480186
"1955",0.0113074113792678
"1956",0
"1957",0
"1958",0
"1959",0
"1960",0.0509335365187886
"1961",0.00028312248197182
"1962",5.25416615347885e-05
"1963",7.68085595126422e-12
"1964",0
"1965",0.00181672917015219
"1966",1.44532798673769e-06
"1967",0
"1968",8.59153942348589e-05
"1969",0.0101600829344958
"1970",0.000585973713854604
"1971",0
"1972",0.0103455826769452
"1973",0.00475537040575724
"1974",1.16576152620063e-07
"1975",7.78498506369685e-05
"1976",0
"1977",0
"1978",0
"1979",0.0348653411093773
"1980",0.00352074177899586
"1981",7.73529525621708e-06
"1982",9.90563854239568e-05
"1983",0.0128161716138506
"1984",0.176257175872039
"1985",0
"1986",0
"1987",0
"1988",0
"1989",8.53804804634706e-11
"1990",0.000471999237791176
"1991",0.00802633075494974
"1992",5.84670623282602e-06
"1993",0
"1994",0
"1995",0
"1996",0.0223880544610886
"1997",0.864524548807265
"1998",0.329188757367293
"1999",0
"2000",2.2646361026446e-06
"2001",0
"2002",0.000153840093058077
"2003",3.33518279294065e-06
"2004",4.68073434600758e-06
"2005",4.38528040547226e-08
"2006",0.127878328244009
"2007",0.0100210901466349
"2008",0.0605779240754115
"2009",0.00108849961888313
"2010",8.18939204527691e-06
"2011",6.87794790594776e-05
"2012",0.0338640255150932
"2013",0.245414946993584
"2014",0.0158706933741544
"2015",0.00675366400802402
"2016",8.83567231380056e-07
"2017",0.0313017779171445
"2018",0.793601791053596
"2019",0.00135068354896539
"2020",0.363995931826402
"2021",0
"2022",0
"2023",8.07201456303197e-05
"2024",0.451988015942765
"2025",0.313520932553423
"2026",0.535995241716726
"2027",0.161360866767844
"2028",0.0386422066363928
"2029",0.355113847288171
"2030",0.000228317232644826
"2031",0.472140754017823
"2032",0.47579796010216
"2033",0
"2034",0.0032576425441071
"2035",0.390646198224037
"2036",0.330520452814093
"2037",0.286741698248818
"2038",0
"2039",5.49196401578023e-07
"2040",0.0380507313463084
"2041",0
"2042",0
"2043",0
"2044",0
"2045",0
"2046",5.43431966093522e-12
"2047",0
"2048",0.045745967293356
"2049",0.0314071994101378
"2050",0
"2051",0
"2052",0
"2053",0.00085857101161646
"2054",2.24134496201733e-05
"2055",0
"2056",0
"2057",0
"2058",0.0111614305963814
"2059",2.87613000082843e-08
"2060",0.00276306125152859
"2061",0.140452394041674
"2062",0
"2063",0.327588730114881
"2064",0.00597025512849714
"2065",0.431632312628667
"2066",0.121698376404273
"2067",0
"2068",0.0488340044611658
"2069",0
"2070",0
"2071",0
"2072",0
"2073",0
"2074",0
"2075",0
"2076",1.48081023797486e-05
"2077",1.47364120905991e-10
"2078",0
"2079",0
"2080",3.83734174436157e-08
"2081",0.00253648888452251
"2082",0.711062489598887
"2083",0
"2084",0
"2085",0
"2086",0
"2087",0.079198195895433
"2088",0
"2089",0.0948394529786775
"2090",0.0264268227671507
"2091",1.62024947858441e-05
"2092",7.44038164413041e-12
"2093",0.0515165588021224
"2094",1.13075326879652e-10
"2095",0.24965831977604
"2096",4.30218319595888e-05
"2097",1.0828449248379e-11
"2098",5.96349347681269e-09
"2099",5.06250549259235e-08
"2100",2.79163583142283e-05
"2101",0.101078294354972
"2102",2.78494694083697e-06
"2103",0
"2104",0.0643128035874522
"2105",0.000962617790503328
"2106",0.00450676421277008
"2107",0.356447956759801
"2108",0.00222472390177397
"2109",5.7972843501175e-05
"2110",0.44131971912332
"2111",0
"2112",0.000430733434397257
"2113",0.0506773778766606
"2114",0.0108945508780073
"2115",0.138243972864266
"2116",0.0248964657518138
"2117",0.0714605794818725
"2118",0.0203646811917099
"2119",0.0187207602290423
"2120",0.0813169584971297
"2121",0.00703038344319962
"2122",0.0443930151644868
"2123",0.225557611072035
"2124",0.000115601420513367
"2125",0
"2126",0.599986227512089
"2127",0
"2128",1.94289029309402e-13
"2129",0
"2130",0.00664210949429589
"2131",0.0698065196139692
"2132",1.10875671125443e-05
"2133",0.0056815213595024
"2134",0.000334549935822603
"2135",1.08801856413265e-14
"2136",0.0199393307773881
"2137",2.22044604925031e-15
"2138",0.133821123076859
"2139",0.00246685167411509
"2140",0.0380932240066797
"2141",9.734495234337e-07
"2142",2.9316646887878e-09
"2143",0.000321917654249937
"2144",0.0233697434598245
"2145",0.0124446451859802
"2146",0.106821264896909
"2147",0.0748120964657881
"2148",0.0157620150788206
"2149",0.0894179093733181
"2150",0.00750820263203433
"2151",1.79856129989275e-12
"2152",0.000210749394759735
"2153",0
"2154",0.0527604727159886
"2155",0
"2156",0
"2157",0.224422408236518
"2158",0.353048417698881
"2159",0.0247640510219462
"2160",0.0636321722413351
"2161",0.000173597880494536
"2162",0
"2163",0
"2164",0.100129417781432
"2165",0.00792233800812481
"2166",0.000333229256848866
"2167",0
"2168",3.16536138078582e-06
"2169",0.069697202567784
"2170",0.177765990734885
"2171",0.00346037984968051
"2172",1.48837165603322e-05
"2173",0.0826930487702455
"2174",0.0331831245664067
"2175",5.55111512312578e-16
"2176",0
"2177",0.000245254225342162
"2178",0.224714498673492
"2179",4.00874607953128e-08
"2180",0
"2181",0
"2182",0
"2183",5.16142684148235e-13
"2184",3.22640035221866e-06
"2185",0.0041176014329839
"2186",0.0011231215627624
"2187",6.68099588307935e-06
"2188",0
"2189",0
"2190",9.5998636229222e-07
"2191",5.71413690637623e-05
"2192",0.0404063720471227
"2193",0.000862068740877686
"2194",0
"2195",0.00310117240750751
"2196",4.60631532916977e-13
"2197",0.00129393331102756
"2198",0.751374537579788
"2199",1.57819467088149e-05
"2200",0.0649513484226264
"2201",0.402314562941363
"2202",0
"2203",6.66133814775094e-16
"2204",1.40443212615082e-13
"2205",0.00159657964166582
"2206",0.582330618172357
"2207",0.0208067787332998
"2208",0.00241297456480416
"2209",0
"2210",2.35589325825458e-13
"2211",0.148474475593207
"2212",0
"2213",0.000626710048516554
"2214",0.0153850152667587
"2215",2.97240010382893e-12
"2216",0.00397922734528144
"2217",0.514518053595553
"2218",3.98570065840431e-14
"2219",0
"2220",0.0816348723257606
"2221",0.000227819770903137
"2222",2.1294184970877e-08
"2223",0.00674345983190772
"2224",0.578756179689084
"2225",0
"2226",0
"2227",0
"2228",0
"2229",0
"2230",3.71622956407691e-07
"2231",0.0282330908788646
"2232",5.98315266531202e-06
"2233",0
"2234",0.211521561885755
"2235",0.00802627983698989
"2236",0.000162050563631277
"2237",0.0131576283776569
"2238",0.782277028777978
"2239",0
"2240",9.85489165816755e-06
"2241",0
"2242",0.679713144591706
"2243",0
"2244",0.00639459951476529
"2245",0.00296256995421673
"2246",0.058632398516188
"2247",0.199339511349571
"2248",0.00142044564992738
"2249",5.92241565233742e-07
"2250",0.00282333843225135
"2251",0.00830716235680451
"2252",3.04144709417642e-10
"2253",0
"2254",0.0616678428316247
"2255",0.000443052986695003
"2256",0.0946540040080363
"2257",0
"2258",0.00200745954177983
"2259",8.28226376370367e-14
"2260",0.0175359298556202
"2261",0.36634942460301
"2262",0.00671182565889483
"2263",9.71311919784057e-12
"2264",6.0285110237146e-14
"2265",0
"2266",0
"2267",0.000124309525150856
"2268",0.114833268448957
"2269",0
"2270",0
"2271",0
"2272",0
"2273",0
"2274",6.71468470714309e-07
"2275",0
"2276",0
"2277",0
"2278",0.000164171523056256
"2279",1.13706730064944e-06
"2280",0.00716259188113977
"2281",0.0521661027455942
"2282",0
"2283",0
"2284",2.18348450431449e-10
"2285",0
"2286",8.88178419700125e-16
"2287",0.00652354446241676
"2288",0.00424046240122866
"2289",0
"2290",0
"2291",0.0514013792551997
"2292",0.0754584618358418
"2293",0
"2294",0.0145553868679233
"2295",0.000141495858855367
"2296",0.0568359217975611
"2297",0.062844579025233
"2298",0.0691073734602665
"2299",0.10910150966747
"2300",7.35402397720186e-05
"2301",0.00194118461493553
"2302",2.83774963727446e-05
"2303",3.4455306752168e-06
"2304",4.0004471957289e-09
"2305",0.0513499822731717
"2306",2.9101707273993e-05
"2307",2.79776202205539e-14
"2308",0
"2309",0
"2310",0
"2311",0.675615691447782
"2312",0.000515671153637598
"2313",0.530146977048587
"2314",0.0300192962319578
"2315",0
"2316",0
"2317",0.0210632641116957
"2318",5.2622082475029e-05
"2319",5.68400023231996e-05
"2320",0.261764711759391
"2321",0
"2322",0
"2323",0
"2324",0
"2325",0
"2326",1.33226762955019e-15
"2327",0
"2328",4.39648317751562e-14
"2329",0.000197392598662138
"2330",0.000939986910345469
"2331",0.227133801121535
"2332",0
"2333",0.157183619462887
"2334",0
"2335",4.76102712920756e-07
"2336",0.221919499883315
"2337",0
"2338",0
"2339",0
"2340",0
"2341",1.48934902188813e-08
"2342",0
"2343",0
"2344",0
"2345",0
"2346",0
"2347",3.68594044175552e-14
"2348",0
"2349",3.82591713044e-06
"2350",0
"2351",0
"2352",0
"2353",0
"2354",0
"2355",3.31387584040499e-10
"2356",3.64892757898083e-06
"2357",0.211910965529814
"2358",0
"2359",0
"2360",0
"2361",0
"2362",0.0148890858968066
"2363",0.294493744771196
"2364",0.0397779181151057
"2365",0.000141500606322231
"2366",0
"2367",3.59760612260729e-05
"2368",0
"2369",0
"2370",0
"2371",2.22044604925031e-16
"2372",0.0503581933328623
"2373",1.11244347067441e-13
"2374",0
"2375",0
"2376",0
"2377",0
"2378",0
"2379",0
"2380",0
"2381",0
"2382",0.00211645723909759
"2383",2.61270877222053e-06
"2384",0.00169158276443271
"2385",3.36397576461422e-14
"2386",0.00778807323859887
"2387",0.000702965507809683
"2388",0.249313104140318
"2389",0.203899798942703
"2390",1.02823065317725e-06
"2391",5.17758502738275e-10
"2392",7.07884356687671e-08
"2393",3.36572991699313e-10
"2394",6.66133814775094e-16
"2395",3.94643149067564e-05
"2396",0.0134903363619431
"2397",0
"2398",0
"2399",0
"2400",1.50820712585542e-08
"2401",0.00167030415169589
"2402",2.56580556801111e-09
"2403",0.00369955549274714
"2404",4.93038943005786e-12
"2405",0.0293848220081468
"2406",1.17821859080269e-06
"2407",0.00751662914830853
"2408",0.0169213565647472
"2409",0.00254842512706766
"2410",1.04694031222152e-13
"2411",0.000458542241632443
"2412",0.00361953311423324
"2413",0.0225742928071652
"2414",6.45453690495401e-11
"2415",0
"2416",0
"2417",0
"2418",0
"2419",0
"2420",0.0901472551525307
"2421",0
"2422",0
"2423",0
"2424",0
"2425",0
"2426",0
"2427",0.00901879352302504
"2428",0.182454208046313
"2429",4.47183401419693e-11
"2430",0
"2431",7.68402206308139e-08
"2432",4.56469291143513e-07
"2433",2.79897105492921e-10
"2434",0
"2435",0
"2436",0.069602822422056
"2437",0
"2438",0
"2439",0
"2440",0.0050531550428925
"2441",5.31774255217998e-05
"2442",0.00059365532682909
"2443",0
"2444",0
"2445",7.31636973227978e-14
"2446",0
"2447",0
"2448",0
"2449",0
"2450",1.11022302462516e-16
"2451",0
"2452",0
"2453",0
"2454",0
"2455",0
"2456",7.04361093445405e-05
"2457",6.13842310315249e-13
"2458",9.57337442608619e-06
"2459",0
"2460",0
"2461",0
"2462",0.000750797740356912
"2463",3.59243993390823e-05
"2464",0.000872714781625872
"2465",0
"2466",0
"2467",0
"2468",0.00166471000383439
"2469",0.0916265447483523
"2470",0.230993777265183
"2471",0.00859054525982106
"2472",4.03721417863157e-06
"2473",1.4432899320127e-15
"2474",8.77220518447075e-12
"2475",1.15415454970957e-11
"2476",3.65170200321563e-05
"2477",0.0165366645900777
"2478",0
"2479",8.77415762572387e-05
"2480",0.283732302503972
"2481",0
"2482",0.000906822745139868
"2483",6.1301819176407e-10
"2484",0
"2485",0.000467556411116288
"2486",0
"2487",0
"2488",8.47752978927474e-11
"2489",0
"2490",0.0208973596213866
"2491",0.880543726555977
"2492",0.000146964441437802
"2493",0.291338004003715
"2494",0.000123657885228612
"2495",0.0304733806239872
"2496",9.85653232365991e-08
"2497",6.9956542447791e-08
"2498",0.0153443958450195
"2499",0
"2500",0
"2501",0
"2502",0
"2503",0
"2504",0
"2505",0
"2506",0.197801027410163
"2507",0.0843899516803972
"2508",0
"2509",0
"2510",0
"2511",3.77475828372553e-15
"2512",0
"2513",0
"2514",0
"2515",1.01060271262554e-11
"2516",0.0622854044840673
"2517",0.258103720213893
"2518",0.238414736004928
"2519",0.0487512864814613
"2520",0
"2521",0
"2522",5.86999815421763e-09
"2523",0.702659928305922
"2524",0
"2525",0
"2526",0
"2527",0
"2528",0
"2529",4.80067372867765e-05
"2530",0.0829193701739486
"2531",0.567083441675801
"2532",0.0029066484492476
"2533",0
"2534",3.37775887093716e-06
"2535",0.00229950451980676
"2536",0
"2537",0
"2538",0.000166194873284287
