"","x"
"1",0.0382120185019723
"2",0
"3",6.93864269374345e-08
"4",0.223012518157712
"5",0.347505075674894
"6",0
"7",0.379519628336977
"8",0.472469128992255
"9",0.000557445953050517
"10",0.879435352640402
"11",0.827067431918363
"12",0.000179474798984836
"13",0.262657795102249
"14",0.999801104869635
"15",0
"16",0.000714489930963791
"17",3.94233501399555e-09
"18",0.74125841238943
"19",0.487803242007399
"20",0.36449237121024
"21",0.228409431338978
"22",0.287779357954831
"23",0.120327542326675
"24",0
"25",0.0912297038793156
"26",0.000288897660163712
"27",2.09277040141842e-13
"28",0
"29",0
"30",0.163826851945326
"31",7.03904712295866e-11
"32",6.29419466213754e-07
"33",0
"34",0
"35",0.305544665630198
"36",0.0076548681851567
"37",0.00237046424336729
"38",0.357651910786848
"39",0.00020491611343143
"40",0
"41",0.680874373045563
"42",0.0118047491217245
"43",0.147185381238347
"44",0
"45",0
"46",0
"47",0.0162131141738768
"48",0.00237578104357195
"49",0.037577910146998
"50",0.645949742989223
"51",0.885669822198727
"52",1.04311115300959e-10
"53",0.890625954208711
"54",0.00722324908987504
"55",0.807248149415616
"56",0.890840821678419
"57",0.59553470795852
"58",0
"59",0.503642584089535
"60",0.0774749827929477
"61",0.27827402674012
"62",0.197666563133018
"63",0.183715168095649
"64",0.0914603528294875
"65",3.23587770404421e-05
"66",0.215660907360289
"67",0.390451405079138
"68",0.000104162199265234
"69",0.507602714555159
"70",0.487012666405246
"71",0.799645347436386
"72",0.0181295874209098
"73",0.000212467024781948
"74",0.793708805847336
"75",0.0173587562266594
"76",4.75408568068048e-07
"77",0.000541018187237396
"78",0.884085089817976
"79",0.0316723284650332
"80",0.0606890199540233
"81",0.00191706475588016
"82",0
"83",0.59657768094796
"84",0.000163008320377189
"85",0.000126831439294373
"86",0.332821598584083
"87",6.66133814775094e-15
"88",0.756579085304652
"89",0.724973188705667
"90",0
"91",0.75981297947118
"92",0.704599191191966
"93",0.259700072048509
"94",0.907202900805258
"95",0.303661762553006
"96",0.194957718764584
"97",0.403438802612833
"98",0.414639235720178
"99",0.71834519567652
"100",0.209390670744581
"101",0.872812290578574
"102",0.204945165323471
"103",0.374657466921364
"104",0.144212427818318
"105",0.00730485700349981
"106",2.84070889811083e-06
"107",0.907135121717579
"108",0.0833065323911915
"109",0.037353049443359
"110",0.51393055761325
"111",0.273075292990684
"112",0.171808362276877
"113",0.207257776238873
"114",0.159505414912567
"115",0.00939688923739956
"116",0.582562335947065
"117",0.570625488565824
"118",0.377415949347057
"119",0.0858283390270573
"120",0
"121",0.239822302912752
"122",0.00983090743167836
"123",0
"124",0.804775211294434
"125",0.176457716609664
"126",0.0271818625336738
"127",0.601950794147616
"128",0.0166175767927711
"129",0.0116161362842682
"130",0
"131",0.0392537865578013
"132",0.42638011588376
"133",0.660891202867883
"134",0.859831140514727
"135",0.576954243672009
"136",0.132399533334124
"137",0.0942386421375773
"138",0.251379979041677
"139",0.389090743957744
"140",0
"141",0
"142",0.00220898463705199
"143",0.353783661880931
"144",0.00562483751385368
"145",0.0761387071196495
"146",0
"147",0
"148",0.266154193490472
"149",0.825072855646902
"150",0.25849806057338
"151",0.766496379769214
"152",0.336059985821775
"153",0.842535224520984
"154",0.0621031278779686
"155",0.972469787679209
"156",0.642423160106169
"157",0.463085548911345
"158",0.396765031095108
"159",0.161414996420549
"160",0.0501917733928835
"161",0.483154578154097
"162",0.310152912997703
"163",0.312769660555046
"164",0.533179954616397
"165",0.338412810866999
"166",0
"167",2.22044604925031e-14
"168",1.33173068461723e-07
"169",0.00361012376525216
"170",0.000345775968438544
"171",0.000111688252220077
"172",6.61694812742475e-05
"173",0
"174",0.000207342289062606
"175",9.51864704168415e-07
"176",0
"177",1.61816549049121e-09
"178",0.000937938696920049
"179",0
"180",0
"181",2.08095555787047e-07
"182",0.541126071967552
"183",0.447414304707648
"184",0.00355943238564849
"185",0.00500790232722359
"186",3.10862446895044e-15
"187",0.914333520784172
"188",0.1367400027546
"189",0.348674106114975
"190",0.911073407743277
"191",0.284234142858146
"192",0.900306719138805
"193",0.20311665978616
"194",0
"195",0
"196",0
"197",0
"198",0.000436743437451148
"199",1.07020278168335e-05
"200",0.000951992735624185
"201",4.04444443280472e-06
"202",0.923080739198519
"203",0.0391324607091854
"204",0
"205",0.38627077836755
"206",0.672858203188114
"207",0.930176497859975
"208",2.23322471626375e-11
"209",0.00288878223575884
"210",0.394250482307701
"211",0.469684192887387
"212",0.140344141910025
"213",0.00816615302264823
"214",0.0264118747829588
"215",0.000487720502869382
"216",0.916703777609298
"217",0.0469079947320905
"218",0.600652126109706
"219",3.33066907387547e-16
"220",9.02062233798517e-08
"221",0
"222",0.279637832002473
"223",0.0106075616666729
"224",0.544725794535936
"225",0.294114301156719
"226",0
"227",0.502260042603542
"228",0.555775378078765
"229",0.057304444641429
"230",0.230546759505075
"231",7.02937708041418e-12
"232",0.327828607210884
"233",0.024570588694265
"234",0.0178552539219696
"235",0.207931160031596
"236",0.248990291731649
"237",0.883268099031617
"238",0
"239",0.256222771193499
"240",0.698886490481715
"241",0.362834287182029
"242",0.653994231717211
"243",0.000195568599467899
"244",0.0546032654401613
"245",0.825566184697471
"246",0.764917488903074
"247",0.561099755994088
"248",0.880170446646874
"249",0.070230833514462
"250",0.00320885477876898
"251",0.0124496672430161
"252",0.428438741189631
"253",0.00353108245788381
"254",0.475810409633868
"255",0.0493887493937922
"256",1.11022302462516e-16
"257",0.510564304002908
"258",0.992077676660473
"259",0
"260",0
"261",1.11022302462516e-16
"262",0.0118055272687543
"263",0.638815486174547
"264",0.154029857645724
"265",0.110533150295009
"266",2.85969359303806e-10
"267",0.899287019921688
"268",0.0334075708974056
"269",0.128583553618303
"270",0.753703309476625
"271",0.379990459961905
"272",6.75298017505099e-09
"273",0.450402708676158
"274",0.0611884049988783
"275",0.79943064336121
"276",0.624444720396081
"277",0.045389706623404
"278",0.44189089767083
"279",0.388990761408835
"280",0.340254723052005
"281",0.76231381261667
"282",0.618605311382285
"283",0.837979358894845
"284",0.950655628859047
"285",0.227545382530991
"286",0.43207085776135
"287",0
"288",0.0680047661344866
"289",0.0724435742678736
"290",0.490375126742075
"291",0.620398115284178
"292",0.109532177047104
"293",0.558411774446392
"294",0.14892464219809
"295",0.350978594929677
"296",0
"297",0.981576797455079
"298",0.914441842954281
"299",0.00713563678441353
"300",0.170360052871844
"301",5.6621374255883e-15
"302",1.32246210515774e-06
"303",0.685765488643121
"304",0.167440346846605
"305",0.0160868268881917
"306",0.0828047912322255
"307",0.171383179235525
"308",0.167280699644058
"309",0.262958299424119
"310",0.943342266916186
"311",0.0534105014317852
"312",0.354171716660456
"313",0.798989342788754
"314",0.389324994055616
"315",0.471007536449651
"316",0.01238404485751
"317",0.490393348234662
"318",0.134121402652249
"319",0.503603013119967
"320",0.819600008374592
"321",0.128129038805398
"322",0.104762496451859
"323",0.0258876349367222
"324",0
"325",0.908981206441805
"326",0.12412919280825
"327",0.306593201899622
"328",0.266832760671436
"329",0.100954943206234
"330",0.505130945813814
"331",0.223711343889206
"332",0.0128380893510225
"333",0.298219234722308
"334",0.341996204487009
"335",0.900271325013608
"336",0.873221557227338
"337",0
"338",0.0948280175683004
"339",0.002102320031659
"340",0.281060933202127
"341",0.547381917779995
"342",0
"343",0.0536071284952012
"344",8.42548253388031e-13
"345",0.666205171179551
"346",0.516477303821447
"347",0
"348",0.511820937118873
"349",0.335491790237089
"350",0.0044916814114826
"351",0.779010338922857
"352",0.00801084896118331
"353",0.00051421936072138
"354",0.00185854694135801
"355",0.396023438725848
"356",0.0453443494981608
"357",0.0535678682882892
"358",0.749723880081086
"359",0.729952974542047
"360",0.793040656534422
"361",0.631144192234794
"362",0.000715640930096462
"363",0
"364",0.000150201664997462
"365",0.22025558137856
"366",0.546764777107355
"367",0.57436878088301
"368",0.126521989643858
"369",0.000711257472520099
"370",0.329351292042001
"371",0.000771309256782926
"372",1.76075034223899e-05
"373",0.174776705105697
"374",0.00493347074069694
"375",0.0909454283502306
"376",0.344919187313343
"377",0.435911055824116
"378",0.749072056786837
"379",0.0784378521324297
"380",0.199441143504597
"381",0
"382",0.192279611216291
"383",0
"384",0.156746669716852
"385",7.32747196252603e-15
"386",0.190628613176633
"387",6.80677736397683e-13
"388",0.0477181847689905
"389",0.83085522889258
"390",0.00799534673706359
"391",0.127719474182316
"392",0.168917091302188
"393",0.761000332180852
"394",0.00819439183739779
"395",0.223117533919164
"396",0.0532617437598895
"397",0.00203941769257032
"398",0.186828739668702
"399",0.35525194587653
"400",0.00921104840722853
"401",0.816070518518738
"402",0.543150611829908
"403",0.0959934974298219
"404",0
"405",9.9255742513904e-09
"406",0.469761160682004
"407",0.00324269929954724
"408",0.00611436007606847
"409",7.54998629409753e-05
"410",0.713051017481326
"411",0.324645503477907
"412",0.098889647091196
"413",0.385982174351183
"414",0.00844630692984749
"415",0.0224900784436292
"416",0.000144437785867257
"417",0.349859357016872
"418",0.000312717837842036
"419",0.00831776648033067
"420",8.16680056914265e-12
"421",0.0653936937754471
"422",0.18980106832782
"423",0.201826386386287
"424",0.171351548991699
"425",0.000103162442223192
"426",0.00779393912044957
"427",0.312946936987687
"428",2.02129871640366e-06
"429",0.346036546266295
"430",0.346743780921738
"431",0.0384477463996699
"432",0.330168843116952
"433",0.024536584432336
"434",0
"435",0.560949646263644
"436",8.72635297355373e-14
"437",0.0458910949275104
"438",0.0239749713408043
"439",0.14611750600651
"440",0
"441",0.0745322057964921
"442",0.00459470646147719
"443",9.0498537771766e-05
"444",0.7203723615658
"445",0.0275716114743199
"446",0.72649138050891
"447",0.248321384427867
"448",3.65436287674825e-07
"449",0.678010538448986
"450",0.128307788204519
"451",0.692555301363665
"452",0.715456607651928
"453",0.157946605559827
"454",1.88737914186277e-15
"455",0.390522112638419
"456",1.42058956709157e-07
"457",0.000373472642866912
"458",0.595603583959323
"459",0.406346268917341
"460",0.990211462882627
"461",0.0510279512517848
"462",0.916273548061814
"463",0.00671795023589972
"464",0.922284380524693
"465",0.37569628714731
"466",0.144445113816387
"467",0.0391373264732373
"468",0
"469",0.485577077694201
"470",0.0600209178741385
"471",0.54216382404699
"472",0.700830208233489
"473",0
"474",0.248206987734727
"475",0.000215609035415953
"476",0
"477",0.40285357047581
"478",0.133472438092558
"479",0.107835455432893
"480",0.0797924964909363
"481",0.109021566665675
"482",0.623140008749309
"483",0.0229288287607369
"484",0.06992171285342
"485",0.957586025499184
"486",0.0128952416400849
"487",0.526485142315794
"488",0.941458102907017
"489",0.41547515108593
"490",0.177163951594882
"491",0.324088986839956
"492",0.197461596066452
"493",0.322057889444956
"494",0.622960780514928
"495",0.86850018582524
"496",0.153622570924816
"497",0.941884127734977
"498",0.0304233407308578
"499",0.748567891211613
"500",0.00322042208706652
"501",0.387215685773218
"502",0.110153267455999
"503",0.0360659891267793
"504",0.686891126198318
"505",0.128617992330158
"506",0.0722214542140842
"507",0.306035606797862
"508",0.000135444155721309
"509",7.23735288774563e-05
"510",0.840026925996355
"511",0.547970497836787
"512",0.804168237129303
"513",0.00665577250288429
"514",0.123862158793252
"515",0.000876785009537251
"516",0.575329734671939
"517",0.43102100567647
"518",0.366244889917618
"519",0.750847772223149
"520",0.248934645324941
"521",0.0725236206177948
"522",0.234979192979812
"523",0.388081057239526
"524",0.280319588255122
"525",0.301604330068244
"526",0.495923149457919
"527",0
"528",0.660843958502931
"529",0.495384581439002
"530",0.0694971195974331
"531",0.556908111151128
"532",0.44817032097103
"533",0.669059758817836
"534",0
"535",0.321827952107769
"536",0.493424862785257
"537",0.602207835390932
"538",0.637201399614136
"539",0.0416171442406795
"540",0.148805057654485
"541",3.11909988592873e-06
"542",0.393046919293279
"543",0.144586059094883
"544",0.462395149815508
"545",0.180447004669905
"546",0.0143647637683346
"547",0.318443282618591
"548",0.0192067317194136
"549",0.5016501556265
"550",0.028110702932804
"551",0.691652301070678
"552",0.523253254671239
"553",0.293318746767446
"554",2.91999757706662e-12
"555",0.619192004702757
"556",0.291302504744011
"557",0.0557691533549298
"558",6.24506417757908e-05
"559",0.376582102017591
"560",0.935064398348753
"561",0.95388181301872
"562",0.0220687548512889
"563",0.949222435350546
"564",0.202708725676545
"565",0
"566",1.11022302462516e-16
"567",0.0416721983224769
"568",0.459163236801643
"569",0.100984883307954
"570",0.00412262649263384
"571",0
"572",0
"573",0.0274247918766755
"574",0.310792577893663
"575",8.230115478014e-10
"576",0.010610168059102
"577",2.22044604925031e-16
"578",0.0634045132008259
"579",0.31182052348698
"580",0.662442080947898
"581",0.0532161692493625
"582",0.00436424901257559
"583",0.00200126754547048
"584",0.10836023982271
"585",0.276825284293683
"586",0.612909343436377
"587",0.037893822623833
"588",0.0681286035016572
"589",0.0188852871431782
"590",0.209042446215853
"591",0.516858909105403
"592",0
"593",0.427904379634061
"594",0.0591453192823241
"595",0.0130312076756891
"596",2.53923829740543e-07
"597",0.00318042559758713
"598",0.0611958836241098
"599",0.375344404005533
"600",0
"601",0.875526249425526
"602",0.126788389787497
"603",0.660438040372393
"604",0.187096183896454
"605",0.0906660345823982
"606",0.00242471779317788
"607",7.80008280187872e-11
"608",0.0345024949993823
"609",0.632024230441561
"610",0
"611",4.7694702223211e-06
"612",0.175112288759441
"613",3.28626015289046e-14
"614",0.00584556174956885
"615",0.0115307327958779
"616",0.135938576333664
"617",7.27890248186647e-07
"618",3.4815871232885e-05
"619",0.296964004806241
"620",0.967703223276166
"621",0.0384345683534892
"622",0.166903155376624
"623",4.2820273502997e-05
"624",0.0492031124128686
"625",0.115894078397174
"626",0.362860491206002
"627",0.408162155531478
"628",5.59918778009205e-12
"629",0.621375172352831
"630",0.0317703829925332
"631",0.0315639842323124
"632",0.98019860659399
"633",0.932915360432465
"634",0.244136490337138
"635",0
"636",2.87380463870335e-09
"637",6.41378247578928e-06
"638",0
"639",0
"640",2.60769005633321e-06
"641",0
"642",8.36409806637128e-07
"643",6.40954878061706e-09
"644",0.24035432155777
"645",7.93906362872576e-09
"646",0
"647",0.000521695951828716
"648",1.87635027071309e-06
"649",0.00186122765699637
"650",0.00256972122653942
"651",0
"652",0.369703649522637
"653",0
"654",0.230556424072769
"655",0.23524294587368
"656",0.000738970714909359
"657",0.460581302781991
"658",0.0589941271092865
"659",0.0189778534579658
"660",0.0194190383570635
"661",0.00171905149970375
"662",0.317430244992027
"663",0.00104700077395037
"664",0
"665",1.47108308423682e-07
"666",0.0138875537063878
"667",1.3814781540944e-09
"668",0.0513383703842374
"669",0.91300901543189
"670",0.0614140483161794
"671",1.96871863256121e-08
"672",0.144997703632676
"673",0.00119098443724441
"674",2.08124692269163e-06
"675",0.0223546288188308
"676",0.353641084193277
"677",0.00293850597200918
"678",0
"679",0.250139808461763
"680",0.294101387832698
"681",2.79776202205539e-14
"682",0
"683",7.36023950675957e-08
"684",0
"685",0.291142371575862
"686",0.757937784897765
"687",0.530788161080291
"688",0.404768133974906
"689",0.871034619582243
"690",0.600364797041893
"691",0.689728904470897
"692",0
"693",0.385652235321181
"694",0.641192919991602
"695",0.801583351477403
"696",0.0143981299031702
"697",0.561140381877831
"698",0
"699",0
"700",0
"701",2.35037478658606e-05
"702",0.284161645108193
"703",0.539159423634795
"704",0.195467288432493
"705",0.0720416161736821
"706",0
"707",0.964847421658049
"708",0
"709",0
"710",0.00502885075606929
"711",0.143336896207482
"712",0.172001378476027
"713",0.259506791473381
"714",0.767080044551648
"715",0.880200095706684
"716",0.00357448373970393
"717",0.396806228206562
"718",0.627337230555016
"719",0.37305170937369
"720",0.970089200837662
"721",0
"722",0
"723",0.583160587942634
"724",0.00247614525594897
"725",0.0276739380316252
"726",0
"727",0
"728",0.220793358727185
"729",0.229835806094771
"730",0
"731",0.294912593554711
"732",0.874997867542865
"733",0.42094573022875
"734",0.619994651219908
"735",0.201692220354487
"736",0.563349530793977
"737",0.13819874264752
"738",0.481968570318903
"739",0.810486315105893
"740",0.321755607327547
"741",0
"742",0.698324318100674
"743",0.969501381114803
"744",0.0584619091244335
"745",0.988429439540581
"746",0.168999552861609
"747",0.326711583154774
"748",0.231414569280679
"749",0.817962425877067
"750",0.235984915129771
"751",0.4007249481722
"752",0.206265106938836
"753",0.55969225931119
"754",0.375296387428847
"755",0
"756",0
"757",0.848559780126133
"758",0.414890262175671
"759",0.00656237438248453
"760",0
"761",0
"762",0
"763",0.530909086331809
"764",0.676640578568886
"765",0.359466181523257
"766",0.534498829672837
"767",0.838799451037866
"768",0.485811101501981
"769",0.464333676997167
"770",0.308334290274251
"771",0.879593689057692
"772",0.259401931456966
"773",0.653335772598214
"774",0.78679080540495
"775",0
"776",0.34790630052768
"777",0.922335595285491
"778",0.757152106200301
"779",0.339092033799785
"780",0.699301707208
"781",0.248151299601772
"782",1.41436062861544e-09
"783",0.479238826024986
"784",0.693632761677256
"785",0.262507233622726
"786",0.132170392662688
"787",0.839297150196555
"788",0.656233157078359
"789",0.436687025165654
"790",0.179228507045615
"791",0.816380278793078
"792",0.951344897851316
"793",0.305682391963145
"794",0.780419051024682
"795",0.534395952965881
"796",0.00731647050727358
"797",0
"798",0
"799",0
"800",0.253844491257761
"801",0.689634987869879
"802",0.782640285402306
"803",0.882428445732479
"804",0.711881691768187
"805",0.891452371901738
"806",0.152787387296539
"807",1.17806420122379e-05
"808",0
"809",0.0528803498932909
"810",0
"811",0.484540229929447
"812",0.886419969102232
"813",0.599832401051003
"814",1.28574928481839e-12
"815",0.00860091429562448
"816",0.177031071806178
"817",0.0264655251305902
"818",0.214341543560019
"819",0.411450716596035
"820",0.0623753642432537
"821",0.00624695366750738
"822",0.195551567312942
"823",0.294580122236143
"824",0
"825",0.139700593075732
"826",0.958726609451346
"827",0.172555865455674
"828",0.0504422229673408
"829",0.162220415919482
"830",0.249377160648755
"831",0.123778823244074
"832",0.0550184418126122
"833",0.174974867943357
"834",0.496305675706924
"835",0.964207041564467
"836",0.837009788870398
"837",0.40436103707931
"838",0.896677537715183
"839",0.552085837116616
"840",0.760273267788383
"841",0.568412591970013
"842",0.0613786558611226
"843",0.912808271150505
"844",0.00830423321161311
"845",0.18987480626572
"846",0.853926262300544
"847",0.820707559486548
"848",0.00137163380422223
"849",0.101373881884665
"850",0.285129853297467
"851",0.103336251890353
"852",0.358415587809362
"853",0.203014155703992
"854",0.829158111950429
"855",0.13508470024375
"856",0.127224052587101
"857",0.810423571352761
"858",0.0176803977679563
"859",0.985323526952921
"860",0
"861",0.175722263767312
"862",0.117034328038568
"863",0.167610774044133
"864",0.200652820150937
"865",0.373540069211756
"866",0.0774515058530246
"867",0.206022668010659
"868",0.174215159241471
"869",0.0486604677581207
"870",0
"871",0.00144843334657596
"872",0.00966436939871118
"873",0.0628202130267714
"874",0.0302638994638305
"875",4.05675317338705e-07
"876",0.318402198649244
"877",0.011420007681469
"878",0.0180365839194288
"879",0.263907703494572
"880",0.110718286318438
"881",0.0412000565171763
"882",0.611669030890676
"883",0
"884",5.55111512312578e-16
"885",8.33116859610961e-07
"886",5.57563217817858e-10
"887",4.95968821567772e-11
"888",9.61469792670755e-11
"889",3.10487798693693e-07
"890",8.14402687510096e-08
"891",0.162483953511396
"892",0.00871666334270937
"893",6.07352468318112e-09
"894",1.01074704161874e-12
"895",8.49730286134331e-10
"896",8.1358689417721e-06
"897",2.16578118347188e-05
"898",2.91004107552117e-05
"899",8.99027084068083e-05
"900",1.62858615482264e-12
"901",3.01386369183643e-06
"902",2.77026113715273e-07
"903",1.19615269537077e-05
"904",0
"905",1.11022302462516e-15
"906",0
"907",3.54161144855425e-14
"908",1.95809682780324e-05
"909",0
"910",0
"911",0
"912",0
"913",3.67195829298339e-10
"914",5.10741482440125e-09
"915",2.09832151654155e-14
"916",0.0212828387248485
"917",2.33146835171283e-15
"918",3.45279360658424e-14
"919",7.06020797380802e-11
"920",2.01096105323373e-08
"921",4.26980673040589e-12
"922",6.66133814775094e-16
"923",3.98673316581721e-11
"924",3.99680288865056e-15
"925",0
"926",0
"927",1.34781075189494e-13
"928",0
"929",0
"930",0.997414077414632
"931",0.970107623587632
"932",0.0605854647301143
"933",0.0136244647669923
"934",0.0419208768738302
"935",4.85372346203938e-07
"936",0.836079527330237
"937",0.360004093389852
"938",0.0123431497047382
"939",0.058454646103457
"940",0.446981377510378
"941",0.0159799685713177
"942",0.290343297250499
"943",0.958722903082441
"944",0.637821712742946
"945",0.37516944239293
"946",0.000804943738151542
"947",0.809897828873447
"948",0.646510107802386
"949",0.00176357936022886
"950",6.98775293517251e-07
"951",0.152428179529151
"952",0.701959006467456
"953",0
"954",0.639711239304698
"955",4.17443857259059e-14
"956",3.80584452841504e-13
"957",0.0457248227496312
"958",0.166954902188488
"959",0
"960",0.480354489050558
"961",0.00685121637587849
"962",0.225937997305034
"963",0.604007227878323
"964",0.678724487270382
"965",0.0661628233538294
"966",0.739536425045545
"967",0.431717808761871
"968",0.106928257120335
"969",0.453936512133529
"970",0.158524003635015
"971",0.0709234798115776
"972",0.399775682174236
"973",0.0168806291432165
"974",4.26990998114718e-10
"975",5.91204143521873e-05
"976",0
"977",0.427901676535096
"978",0.00355871310304068
"979",0
"980",0.826668684811548
"981",0.146896121810877
"982",0.25132127237798
"983",0.915437135805123
"984",0.168735850640288
"985",0.972549379433888
"986",0.765020769234469
"987",0.093728422842926
"988",0.543906016358775
"989",2.19846363336273e-12
"990",0.675146412761744
"991",0.139939514195636
"992",0.166500439020356
"993",0.732077038875007
"994",0.35560064084185
"995",0.151726644791096
"996",0.918517996734466
"997",0.812734749094427
"998",0.651814174618677
"999",0.750689007000923
"1000",0.985648769863169
"1001",0.269552961852586
"1002",0.0594955060122744
"1003",0.828020206997742
"1004",0.68893846624821
"1005",0.0842945907375183
"1006",0.747128145164559
"1007",0.0239558701102253
"1008",0.405814855043652
"1009",0.867700931568094
"1010",0.541265392687062
"1011",0.183669702618726
"1012",0
"1013",0.58232414620754
"1014",0.655762979092732
"1015",0.824868543147946
"1016",0.81672585084167
"1017",0.205747289864034
"1018",0.0907610271497551
"1019",0.00117918619658319
"1020",0.639182460301258
"1021",0
"1022",1.72084568816899e-14
"1023",0.000126129394924401
"1024",0
"1025",0.924168990129494
"1026",0.00262879389866633
"1027",0.993365982413671
"1028",0.859850435291975
"1029",0.329925550522832
"1030",0.195052714707709
"1031",0
"1032",0.39805246429641
"1033",0.328771428064557
"1034",0.0310889162223869
"1035",0.0652341402955804
"1036",0.415575475246511
"1037",0.0280698009569097
"1038",0.528444751866736
"1039",0.00397655277401365
"1040",0.0667333908275478
"1041",0
"1042",0.168839785208778
"1043",0.348851300747343
"1044",0.0722601356716188
"1045",0.0652354308791863
"1046",0.00295190611809271
"1047",0.0155689485894855
"1048",0.582090391702672
"1049",6.18276991957156e-05
"1050",4.52304860232289e-13
"1051",2.18398500129169e-06
"1052",3.00570679456769e-12
"1053",1.13088291842089e-07
"1054",0.00042641430759327
"1055",0
"1056",0.00302241963282457
"1057",0.0394838107332125
"1058",0.0021109012673135
"1059",5.88418203051333e-15
"1060",4.96744561229168e-06
"1061",0.000518641363105421
"1062",1.42885703269258e-13
"1063",5.17498531804605e-08
"1064",0.00902091276254924
"1065",7.61978190655377e-06
"1066",6.51879650259701e-09
"1067",0.000435241974859335
"1068",0.00169911547749235
"1069",1.9691989172621e-06
"1070",6.61763648435176e-06
"1071",0.000720519499506467
"1072",1.66676471533567e-05
"1073",5.52973555834058e-10
"1074",1.29071440335693e-05
"1075",0.138755150073492
"1076",0.160621234758163
"1077",1.35079796936832e-06
"1078",2.39364084109184e-13
"1079",0.219487411205514
"1080",0.120139330454198
"1081",0.00251221551499903
"1082",3.21964677141295e-15
"1083",0
"1084",0.215752473448952
"1085",0.821015446938586
"1086",8.02577836143126e-05
"1087",0.168909233051244
"1088",0.502856573319856
"1089",0.00295920609402311
"1090",0.000380285172360995
"1091",0.0305378659707221
"1092",0.00523382725000643
"1093",0.189442692651597
"1094",0.509213514304068
"1095",0.000146106157254855
"1096",3.31172432372906e-05
"1097",5.15878673112979e-10
"1098",0.000702889820319408
"1099",3.04186048538657e-06
"1100",0.227966389287306
"1101",0.000316030877136608
"1102",0.00952631759894773
"1103",0
"1104",0.0089321238577611
"1105",5.36862335698274e-08
"1106",1.0228933148948e-05
"1107",0.000618042895092596
"1108",0.00265949030820922
"1109",0.00246193666290373
"1110",1.99733069183861e-06
"1111",0.182162659973182
"1112",0.0136012039157324
"1113",0.000182730093127081
"1114",0.00229170494949804
"1115",1.95433891292396e-10
"1116",0.056216335648412
"1117",1.48777012931589e-09
"1118",1.66934996603807e-07
"1119",0.003363813587965
"1120",0.00129383690667062
"1121",0.00195397299648181
"1122",0.0146044636121273
"1123",9.11215670917898e-07
"1124",0.000100328809872874
"1125",0.00880893457090748
"1126",0.0474978867419995
"1127",0.117829849112273
"1128",0.00647535068373895
"1129",0.545361804491952
"1130",0
"1131",0.0174247340056534
"1132",3.50094249035315e-07
"1133",0.000187647233860666
"1134",0
"1135",0
"1136",0.00168387585739849
"1137",0
"1138",0.00374281409485655
"1139",7.71101820261633e-05
"1140",0.00132993737559917
"1141",0.112282081613994
"1142",0.00124146450163243
"1143",3.8972466630538e-06
"1144",0.0178547313189381
"1145",6.19796766090364e-05
"1146",7.07515008071535e-05
"1147",0.00278644833989694
"1148",1.97239240495861e-08
"1149",0.0304258326115213
"1150",2.6616726377382e-06
"1151",0.00136124795052461
"1152",0.000758412536611353
"1153",0.084655584963924
"1154",1.03197216660966e-07
"1155",0.25492805438262
"1156",0.156557468483062
"1157",3.33713241595923e-06
"1158",0.00077633948882605
"1159",6.0537408036021e-05
"1160",0.0166191510692516
"1161",2.50735288898074e-06
"1162",0.00234492319185153
"1163",8.05118194335819e-11
"1164",8.44346814687924e-12
"1165",0.325514011140335
"1166",0.118740705473668
"1167",0.121291918461392
"1168",6.75015598972095e-14
"1169",0.00190801729826207
"1170",0.539606145591818
"1171",0.799155465287406
"1172",0.833946525181879
"1173",2.02426898582297e-05
"1174",0.331917898230314
"1175",0.271000207960148
"1176",0
"1177",0.000892034058309399
"1178",0.00833150526919257
"1179",0.000879016517189246
"1180",0.0139277655091882
"1181",0.000314901914638344
"1182",0.00088641474578588
"1183",3.70488639767075e-09
"1184",0.132967253256725
"1185",0.000169831903782613
"1186",4.61114735916812e-06
"1187",0.0216956831042203
"1188",0.0518130811154632
"1189",0.00424004276693124
"1190",6.52061244575952e-05
"1191",0.0212451257587668
"1192",6.78619545386727e-05
"1193",0.000108422369529126
"1194",1.14217017399554e-07
"1195",0.000186150332394441
"1196",0.0018132397240449
"1197",2.76384869146717e-05
"1198",1.49521741210634e-06
"1199",1.60303653801153e-05
"1200",0.000901110499700875
"1201",0.00169539805078922
"1202",0.0148205927257636
"1203",0.0213757928086326
"1204",0.912979708536774
"1205",0.000165063885517513
"1206",0.192375641778913
"1207",0.000721398856215361
"1208",0.00172171046075242
"1209",1.1306136996736e-05
"1210",0.000722947143603658
"1211",6.74366692487993e-08
"1212",0.000221967845418725
"1213",0.0404789736091558
"1214",0.000597088603989104
"1215",5.32618614255131e-05
"1216",0.00275405737993539
"1217",0
"1218",0.46808664634278
"1219",0.193140811084722
"1220",2.87652424102447e-09
"1221",0
"1222",0
"1223",2.42904340227446e-05
"1224",0.0039413088783552
"1225",0
"1226",0
"1227",0
"1228",0.650911370871594
"1229",0.0859002133582175
"1230",0.308593270772473
"1231",0.000139742106978979
"1232",6.14154616052076e-10
"1233",0
"1234",0
"1235",0
"1236",0.032259169273496
"1237",0.165563852318812
"1238",0.401247622699294
"1239",0.111473632148492
"1240",0.83809704585804
"1241",6.63290857206844e-05
"1242",0.0297261670133017
"1243",0
"1244",0.00222231916423343
"1245",0.993643879800883
"1246",0.572466049488717
"1247",0.933102387657512
"1248",0.511056972526
"1249",0.859017764391086
"1250",0
"1251",0.00410660588121481
"1252",0
"1253",0.978977247566027
"1254",0.0107289868217256
"1255",0.937422429907211
"1256",0.0582543835474427
"1257",0
"1258",0
"1259",1.76397795148553e-07
"1260",0.139549223698834
"1261",0.0042609917993629
"1262",0.863682852015095
"1263",0.0193473510812927
"1264",0.703811702513486
"1265",0
"1266",4.44089209850063e-16
"1267",0
"1268",0
"1269",0
"1270",0
"1271",0
"1272",1.11022302462516e-15
"1273",0.802395477540239
"1274",0.867180006628275
"1275",3.4289238115548e-12
"1276",0.310946360495844
"1277",0
"1278",0
"1279",0
"1280",0.659216383434088
"1281",0.63833526244401
"1282",0.313737054246062
"1283",0.48346152826363
"1284",0.831031465486944
"1285",0.0678995498777395
"1286",0.457512840275588
"1287",0.46965232546524
"1288",0.186109342785335
"1289",0.978877951819854
"1290",0
"1291",0
"1292",0
"1293",6.92094290766221e-08
"1294",0
"1295",0.626924112122555
"1296",0
"1297",0.158253169073815
"1298",0.341680043211094
"1299",0.937297625174512
"1300",0
"1301",0.0417836174205495
"1302",0.133693702627221
"1303",0.0368385693394988
"1304",0.625400882812944
"1305",0.841912178213279
"1306",0.643195627504386
"1307",0.851831009363225
"1308",9.6058236143115e-08
"1309",0.365579220754071
"1310",0.957558639668289
"1311",0.816647222244344
"1312",0.105118025235034
"1313",0.427163724733827
"1314",0.0800321786339561
"1315",0.998430278504741
"1316",0.450338030715018
"1317",0.621789320163264
"1318",0
"1319",0
"1320",0
"1321",0
"1322",0.459085298580492
"1323",0.338453395562208
"1324",0
"1325",0
"1326",0
"1327",0.630734612721871
"1328",0
"1329",0.000459048475610735
"1330",0.246974308435804
"1331",0.946676059087928
"1332",0
"1333",0.359502916618968
"1334",0.00670959365367307
"1335",0.353257744749591
"1336",0.192296611086293
"1337",0.955600045420212
"1338",0.557061171008333
"1339",0.94660348234645
"1340",0
"1341",0.586560830835341
"1342",0.192741108323238
"1343",0.704559306560725
"1344",0.322616560884838
"1345",0.0132679011402186
"1346",0.597949941338435
"1347",0.34198902259194
"1348",0.956330731207126
"1349",0
"1350",4.69233839339722e-07
"1351",0.427875147962833
"1352",0.99671357675104
"1353",0.0964650208909256
"1354",0.112194735593601
"1355",0.222641331667259
"1356",0.809915726372229
"1357",0.222247211423761
"1358",0.899165038617658
"1359",0.364216277244861
"1360",0.793784761538055
"1361",0.0993799829618218
"1362",0
"1363",0
"1364",0
"1365",0.54253450777903
"1366",0.463386128626698
"1367",0.764576944929608
"1368",0
"1369",0
"1370",1.98264867967701e-07
"1371",5.85661482667144e-05
"1372",0
"1373",0.126396138613843
"1374",0.196334377196152
"1375",3.74984487905294e-11
"1376",0.00332812579131581
"1377",1.21130624819443e-06
"1378",0.0781820537109876
"1379",0.00464964106391608
"1380",0.687733189306091
"1381",3.41787727242693e-06
"1382",0.960245796121033
"1383",0.664020161803669
"1384",0.0173024809998926
"1385",0.955412665899658
"1386",0.213481268197239
"1387",0.490907425706889
"1388",0
"1389",0.323498057300349
"1390",0
"1391",9.00295914962879e-06
"1392",0.943303247201227
"1393",8.00180637441361e-05
"1394",1.96406943486771e-07
"1395",0
"1396",0
"1397",0.0465065639189145
"1398",0.185962521117835
"1399",0
"1400",0.132820968253541
"1401",0.000128441863154416
"1402",0.373662483198637
"1403",0.5770759021617
"1404",0.770029271364196
"1405",0.108314603677325
"1406",0.123824611839984
"1407",0.696402002877539
"1408",0.480368933065214
"1409",0.58925160047284
"1410",0.847177429918015
"1411",0.165150638150979
"1412",6.15038925344535e-08
"1413",0
"1414",0
"1415",0.800153465367632
"1416",0.627132010699752
"1417",0.062475974338646
"1418",0.889351718919316
"1419",0.888715077037517
"1420",0.375108486159787
"1421",0.178299279106866
"1422",0.969666829454371
"1423",0.997913377154622
"1424",0.98579344199242
"1425",0.00032752031153227
"1426",0
"1427",0.337409632685862
"1428",0.678312275506478
"1429",0.658633927661248
"1430",0
"1431",0
"1432",0.0091423101053022
"1433",1.46651499993711e-05
"1434",5.58659308669274e-06
"1435",0.000534321445419539
"1436",0.000147902015966261
"1437",2.43768840002545e-07
"1438",0.0571091745081793
"1439",0.000212824932124822
"1440",0.0118973142520136
"1441",0.0400935897694003
"1442",0
"1443",0.0469222998395856
"1444",0.000556878920971671
"1445",0.492145743983261
"1446",0.962278792208409
"1447",0.217916577746496
"1448",0.00868261131418824
"1449",0.464967156363031
"1450",1.05864057520222e-08
"1451",0.64726317982118
"1452",0
"1453",1.03827946240642e-10
"1454",0.0136153736937497
"1455",0.0234536417026143
"1456",0.754965056566682
"1457",0.955981883008602
"1458",0.00820018166656766
"1459",1.08163067391587e-09
"1460",0.133090207797438
"1461",0.725087814614244
"1462",0.0104673732143131
"1463",0.140653034036944
"1464",0.0248028730864799
"1465",0.118009911744087
"1466",1.33362488663469e-05
"1467",0.00510986227488985
"1468",0.00238911519279161
"1469",0.0169003850069963
"1470",0.0864398294582447
"1471",0.00552328479403408
"1472",0.0982530649654179
"1473",0.551824174180184
"1474",0.138319291144155
"1475",0.000868492639084839
"1476",0.00156656760697726
"1477",0.576657385294236
"1478",0.00777626883971549
"1479",0.254678111865233
"1480",0.00578003102380764
"1481",0.045323013021986
"1482",8.69920240229582e-05
"1483",0.00207480732801502
"1484",0.174230019291869
"1485",0.0325801720480144
"1486",0
"1487",1.19777632257012e-10
"1488",0.243093893278157
"1489",0.00304732595414225
"1490",0.140608288889099
"1491",2.41590608851538e-07
"1492",0.00287354531299333
"1493",6.56471056403873e-08
"1494",0.000292170497198652
"1495",0.0286696604005753
"1496",0.00133587023419457
"1497",0.116038405683243
"1498",2.88648224677779e-06
"1499",0.000669720564757004
"1500",0.712474758403725
"1501",0.835131627933419
"1502",9.16287800324378e-05
"1503",0.00331276266137781
"1504",0.000458929611766856
"1505",0
"1506",0.319877332666889
"1507",0.990614818897365
"1508",0.931142052679851
"1509",0.0134546825926096
"1510",0.139706980896046
"1511",0.02642845249618
"1512",0.00342156353110901
"1513",0.00126657397783814
"1514",4.9203326968339e-09
"1515",0
"1516",0
"1517",0.561938118130229
"1518",0.0258666801220206
"1519",0.700069617946383
"1520",0.735900628032729
"1521",0.635816750671811
"1522",0.480990808058384
"1523",1.09644434184153e-05
"1524",2.03086436556532e-11
"1525",0.723229119906255
"1526",0.881216045724367
"1527",0.368047760789416
"1528",0
"1529",0.513187432249571
"1530",0
"1531",0.00265800373951963
"1532",0.0827856233301295
"1533",0.122712375554963
"1534",0
"1535",0
"1536",4.55191440096314e-15
"1537",0.00229408542697451
"1538",0.0142306635144538
"1539",3.96202793597755e-05
"1540",0.140142274500286
"1541",0.224923193148643
"1542",0.24936498428656
"1543",0.308061848186008
"1544",0.0151786513429008
"1545",0.013303994536989
"1546",0.0116767219328553
"1547",0.0117842993428038
"1548",0.569662291882572
"1549",0.0745003744354678
"1550",0.66110149679658
"1551",0.04123022043949
"1552",0.136437804919292
"1553",0.124942549541329
"1554",1.56654342055029e-05
"1555",5.52134736819809e-08
"1556",2.22950657935428e-10
"1557",0.0602037055709785
"1558",0.00932681286233239
"1559",2.12806806731969e-07
"1560",0.000100944719416352
"1561",0.000152350394724943
"1562",0.0461352511317601
"1563",1.5245377331885e-05
"1564",5.52262728037434e-06
"1565",4.42423875313125e-13
"1566",1.96626287689572e-05
"1567",1.31029076477773e-10
"1568",0.000900007728433461
"1569",0.0196250162678944
"1570",7.22748527692829e-10
"1571",3.09766020467617e-06
"1572",0.5776640043584
"1573",0.0894676087598436
"1574",0.0157121013908511
"1575",0.00505629816081554
"1576",6.37701613581676e-06
"1577",0.0550104997918472
"1578",0.904791507557014
"1579",0.80652384381805
"1580",0.657458694124451
"1581",0.565843791836101
"1582",0.533603807070402
"1583",0
"1584",3.37688439655537e-07
"1585",0.0342710989797318
"1586",0
"1587",0.0173896113466565
"1588",0.0238113250998183
"1589",0.0749845332445088
"1590",0.00214322868006478
"1591",0.994676200718815
"1592",0.396287743893887
"1593",0.302019884912736
"1594",0
"1595",0.194031357124206
"1596",0.0804229016558556
"1597",0.751476187029264
"1598",0.241653734832343
"1599",0.26934443196055
"1600",0.53825439582376
"1601",0.477416751231933
"1602",0
"1603",0.0785851820740996
"1604",0
"1605",0.832899808062839
"1606",0.595862184701763
"1607",0.0126969853857331
"1608",1.45439216225896e-13
"1609",0.295950470947365
"1610",0
"1611",0
"1612",0.481329908069978
"1613",0.281810496101079
"1614",0.000777053164700892
"1615",0.149134418770842
"1616",0.00586961604581637
"1617",0.872119556974216
"1618",0.574262923458349
"1619",0
"1620",0
"1621",0
"1622",3.26678741169317e-07
"1623",0.0235772627470068
"1624",0.00104803920234053
"1625",1.78261849725914e-11
"1626",2.90230676902592e-06
"1627",1.10105577733055e-06
"1628",2.91752058734218e-07
"1629",6.50588305531885e-05
"1630",1.96022037157739e-07
"1631",0.000641701155847274
"1632",0.0542916319399541
"1633",7.7715611723761e-15
"1634",1.64247494005565e-06
"1635",0.912003271764642
"1636",9.15698972203671e-09
"1637",6.35982226881993e-08
"1638",8.88178419700125e-16
"1639",0.0146974833918725
"1640",0
"1641",1.14885428947886e-08
"1642",6.60040500033432e-09
"1643",1.03076658319878e-10
"1644",1.12926334949748e-11
"1645",1.04276694945504e-07
"1646",3.20893679273127e-06
"1647",7.06657843352332e-10
"1648",0.000723933376703734
"1649",0.000114681921851045
"1650",1.55642108090603e-08
"1651",3.25950774149319e-08
"1652",0.000158002732813967
"1653",0.0764499538479779
"1654",0.0977228760291253
"1655",1.56705646696675e-05
"1656",5.28258072840515e-08
"1657",2.75888290979243e-05
"1658",0.00061424192649584
"1659",8.74437897265823e-05
"1660",0.00198209779035674
"1661",0.0133361703889496
"1662",0
"1663",0
"1664",1.38723018627829e-07
"1665",0
"1666",0.718922429599257
"1667",0.262912061523565
"1668",0.963970534274836
"1669",0.872126794043425
"1670",0
"1671",0.0690471767491178
"1672",0.838613157082566
"1673",0.0543519206303116
"1674",0.38122616525097
"1675",1.19055677205715e-07
"1676",0.80125861190874
"1677",0.86809598591249
"1678",0.525869708148096
"1679",0.164831685015729
"1680",0.617032529078608
"1681",0
"1682",3.01996505580604e-09
"1683",0.278254842776754
"1684",0.310268606869093
"1685",0.293535569516215
"1686",0
"1687",0.377952890077032
"1688",0.549882491351764
"1689",0.999076891374243
"1690",0.0109804412702116
"1691",0.470378273828093
"1692",0.0533804319898767
"1693",0.228719847638496
"1694",0.775764538165964
"1695",0
"1696",0
"1697",0.671332640482476
"1698",0.152095144512185
"1699",0.296436813658648
"1700",0.976813817407492
"1701",0.0195175286253249
"1702",0.486793722766247
"1703",0.148816032407862
"1704",0
"1705",0
"1706",1.77458048256085e-12
"1707",0.00223229293844829
"1708",5.76919071404447e-08
"1709",0
"1710",0
"1711",0
"1712",0.0151304598803281
"1713",2.30926389122033e-14
"1714",8.79618600180265e-12
"1715",0
"1716",1.32893696047631e-13
"1717",4.59789206708194e-10
"1718",1.87445557413568e-05
"1719",0
"1720",7.54951656745106e-15
"1721",2.0952942714203e-08
"1722",0
"1723",0.198730279624135
"1724",0.0264427009480183
"1725",0.877938183322281
"1726",0
"1727",0.184057905603188
"1728",0.487191611092122
"1729",0.00447226373787668
"1730",0.37542590340022
"1731",0
"1732",0.00128004984470542
"1733",0.881657721814716
"1734",0.0314859465445528
"1735",0.792675028749382
"1736",0
"1737",0
"1738",0.937977933818332
"1739",0.472216170567506
"1740",0
"1741",0.682845548835727
"1742",0.894378783261807
"1743",0.664433646327095
"1744",0.881975672176066
"1745",0.755325300648623
"1746",0.319627438942356
"1747",0.93788483606607
"1748",0.244662221982485
"1749",0.867064276556976
"1750",0.00218619881839077
"1751",0
"1752",0.00584525550107717
"1753",0.455853638472684
"1754",0.094163550492378
"1755",0.0741031040662818
"1756",0.0874082402411263
"1757",0.759520083440617
"1758",0.68495811847827
"1759",0.814875212528888
"1760",0.154555487154952
"1761",0.909638227622601
"1762",0.323712093930339
"1763",0.0507567476926876
"1764",0
"1765",0.000206350693969126
"1766",0.458957798030622
"1767",0.203990937816859
"1768",0.614314692967627
"1769",0.386529016342
"1770",0.33893500173007
"1771",0.417661088628066
"1772",0.735446741556786
"1773",0.0109455138342477
"1774",0.250259414216793
"1775",0.378142122809927
"1776",0.10728226511607
"1777",0.0214526970109458
"1778",0.0347042612670779
"1779",0.453612908066106
"1780",0.0109841080434738
"1781",0
"1782",0.00138278999191255
"1783",0.0364388957802918
"1784",0.0462878405491421
"1785",0.0499668052241735
"1786",0.250202368229248
"1787",0.000971609517077421
"1788",0.00235872581257679
"1789",0.852354870725653
"1790",0.102996384347763
"1791",0.000127999785508592
"1792",2.70016519954286e-06
"1793",0
"1794",3.90032202519652e-05
"1795",0.320010523164208
"1796",0.167239226984816
"1797",0.0529205685462281
"1798",0.886442492105869
"1799",0.696451727549279
"1800",0.155293664407547
"1801",0.20686091671603
"1802",0
"1803",0.00940295602527208
"1804",3.10506060974269e-07
"1805",0
"1806",0
"1807",0
"1808",0.815949597493418
"1809",0.570265113539997
"1810",0.388519827549875
"1811",0.148404309651521
"1812",0.814155292942378
"1813",0.714691774730742
"1814",0.0159888471157487
"1815",0.0985695331053544
"1816",0
"1817",0
"1818",0
"1819",0
"1820",9.99200722162641e-16
"1821",0.926785001697449
"1822",0.437469894870299
"1823",0.880760449949875
"1824",0.0243546855055606
"1825",0.433189849917979
"1826",0.861224701847803
"1827",0.312299601669515
"1828",0.0679281127943532
"1829",0.964798178435839
"1830",0.619299968610387
"1831",0
"1832",0
"1833",0
"1834",0
"1835",0
"1836",0.383262572246649
"1837",0.783639137095841
"1838",0.0503589921779815
"1839",0.967157161698792
"1840",0.655644974145028
"1841",0.117462123738913
"1842",0.537563345524594
"1843",0.403743132323471
"1844",0.413581844586661
"1845",0.914524414653807
"1846",0.179361836408243
"1847",0.00209917235826229
"1848",0
"1849",0.84533870183763
"1850",0.953463695085975
"1851",0.0174734806344391
"1852",0.931953517577842
"1853",0.0353725913576555
"1854",0.0141452705202029
"1855",0.535464087862556
"1856",0
"1857",0
"1858",8.85180817533637e-13
"1859",0
"1860",0.0731534396304014
"1861",0.079924070800439
"1862",0.861311648876461
"1863",1.50659628328498e-07
"1864",0.425683993657894
"1865",0.0451519167355962
"1866",1.37289069002122e-11
"1867",0.0181552388459557
"1868",0.331512226017895
"1869",0.0622468652777637
"1870",0.209760043564056
"1871",0.807509888736809
"1872",0.664762677870004
"1873",0.894182875313156
"1874",0.00355909604006532
"1875",0
"1876",0.758838957975023
"1877",7.02516639623507e-05
"1878",0.495369528923291
"1879",0.0400762893395412
"1880",0
"1881",0
"1882",0.676818291590251
"1883",0.314491799650323
"1884",0.861758745767136
"1885",0.370243047609623
"1886",0.426899141978825
"1887",0.925861462333359
"1888",0.659755087606366
"1889",0.0203576657219695
"1890",0.329570791705751
"1891",0.00454723040762073
"1892",0
"1893",0.182279311706207
"1894",0.15719697255289
"1895",0
"1896",0
"1897",0.300681488361586
"1898",0.0400866728280389
"1899",0.0462492761534072
"1900",3.85607002773014e-07
"1901",0.167099792022133
"1902",0.124373452793952
"1903",0
"1904",0.254309948118829
"1905",0.083040081259563
"1906",0
"1907",0.735462885650792
"1908",0.685831002991284
"1909",0.857324149410801
"1910",0.545913822376094
"1911",0.256510733046573
"1912",0
"1913",0.487665429159118
"1914",0.0036280530054954
"1915",0.693082781974228
"1916",0.498562440806589
"1917",0.917640835821222
"1918",0.0608263284419275
"1919",0.198470599902965
"1920",0.152848130768945
"1921",0.942497325024553
"1922",0.194211246861684
"1923",0.212944814463431
"1924",0
"1925",0
"1926",0
"1927",0
"1928",1.4083525756714e-07
"1929",0.329189711740368
"1930",0
"1931",0.0508366623046864
"1932",0.657713422532011
"1933",0
"1934",0.427550324514143
"1935",0.441250536896489
"1936",0.382680432650352
"1937",0.976384478719244
"1938",0.97599717921917
"1939",0
"1940",0.452815624798859
"1941",0.141602339267213
"1942",0.310737882227117
"1943",0.209269721609503
"1944",0.0304004198878436
"1945",0
"1946",0.0109145484226897
"1947",0.699251634140628
"1948",0.402981142823315
"1949",0.352894559622159
"1950",0.127280035166775
"1951",0.745260649931197
"1952",0.576936190114143
"1953",0.706581704692358
"1954",0.203147778867095
"1955",0.469619301950163
"1956",0
"1957",7.66234478866146e-07
"1958",0
"1959",0
"1960",0.0389214147879119
"1961",0.941175236756351
"1962",0.917642818958428
"1963",0.591375706871425
"1964",0.0121614524712718
"1965",0.19277758728523
"1966",0.726597707282406
"1967",3.36106098508537e-09
"1968",0.588208818471824
"1969",0.571316460393072
"1970",0.227859969611683
"1971",0
"1972",0.683025744416868
"1973",0.837249256660477
"1974",0.54982574664943
"1975",0.637268655506594
"1976",1.77635683940025e-15
"1977",0
"1978",0
"1979",0.379956679578715
"1980",0.994739806417529
"1981",0.46714251497546
"1982",0.427857827124273
"1983",0.0139170217250144
"1984",0.868970330947448
"1985",8.4652410125563e-05
"1986",0
"1987",0
"1988",5.78697090247715e-11
"1989",0.256754272951347
"1990",0.435285347326661
"1991",0.26548545142158
"1992",0.0524139619268568
"1993",0
"1994",0
"1995",0
"1996",0.154430798475728
"1997",0.631691695656218
"1998",0.936991897358272
"1999",5.81015189959899e-07
"2000",0.758120226397848
"2001",3.60683705125098e-11
"2002",0.569481258531395
"2003",0.0279800725078272
"2004",0.0107541848335992
"2005",0.434631909150119
"2006",0.0408259263932615
"2007",0.48669309487916
"2008",0.105614687544084
"2009",0.504497424081481
"2010",0.378885856496678
"2011",0.761898248373341
"2012",0.803745689356849
"2013",0.154238024811917
"2014",0.0367269888788418
"2015",0.133120974914316
"2016",0.192007203762336
"2017",0.052732688865918
"2018",0.826984856747568
"2019",0.979316553730083
"2020",0.839677475941466
"2021",0
"2022",0
"2023",0.510055340990268
"2024",0.247416372757682
"2025",0.793067972601126
"2026",0.256316524744327
"2027",0.890516513838755
"2028",0.451705017651588
"2029",0.54589880749707
"2030",0.25792247811938
"2031",0.430366012105701
"2032",0.515195074175828
"2033",0.000659045437525818
"2034",0.780587962576085
"2035",0.0526543514003548
"2036",0.653702321248081
"2037",0.26613929188121
"2038",0
"2039",0.104417711916725
"2040",0.0694820841198879
"2041",0
"2042",0
"2043",0
"2044",3.72767454570599e-07
"2045",0.011774760964458
"2046",0.433762713121798
"2047",0.0261752922803525
"2048",0.00465518632249162
"2049",0.306081476514038
"2050",0.0535662150163712
"2051",1.74057102064751e-10
"2052",0
"2053",0.787801657760561
"2054",0.305114344916427
"2055",0
"2056",7.57503623383116e-07
"2057",3.2922220505327e-11
"2058",0.147950472914086
"2059",0.00169892293798501
"2060",0.0637388832193633
"2061",0.0838465362260683
"2062",0
"2063",0.302083205401552
"2064",0.081201507138986
"2065",2.87054359883188e-05
"2066",0.138140302551098
"2067",1.11022302462516e-15
"2068",0.000251926154844706
"2069",2.22044604925031e-16
"2070",0
"2071",6.86133919000076e-05
"2072",6.55309140284999e-12
"2073",5.01785391016085e-10
"2074",0
"2075",0.0487562517622605
"2076",0.0607874286154166
"2077",0.0656939609414486
"2078",0.000247986173152026
"2079",7.13076694814907e-05
"2080",0.0519686137895004
"2081",0.052010454698728
"2082",0.752245324914808
"2083",4.35468994197663e-10
"2084",0
"2085",0
"2086",0.00170425585934952
"2087",0.0679119818908669
"2088",0.907608583118856
"2089",0.000796710783139809
"2090",0.126533319378755
"2091",0.743640941454639
"2092",0.910161339327108
"2093",0.707874758393951
"2094",0.888863845672587
"2095",0.783368120355048
"2096",0.242435205632253
"2097",0.172809067002343
"2098",6.23821743039876e-07
"2099",0.0653807450494683
"2100",0.0181454938017416
"2101",0.00904081328855244
"2102",0.00353478828352616
"2103",2.22044604925031e-16
"2104",0.971689518946984
"2105",0.661261994771746
"2106",0.4362306862201
"2107",0.46600965238214
"2108",0.0618253484671735
"2109",0.564683416139071
"2110",0.373770123606379
"2111",0
"2112",0.608640039285202
"2113",0.528901796481172
"2114",0.844106021147976
"2115",0.687722981098679
"2116",0.358738063640873
"2117",0.522655176049335
"2118",0.749191731883228
"2119",0.63123161194992
"2120",0.199969498153041
"2121",0.758719407919063
"2122",0.300339481762866
"2123",0.464514236781641
"2124",0.935329089038749
"2125",0
"2126",0.000133938881360707
"2127",0
"2128",0.000632632074562434
"2129",0
"2130",5.99536975620651e-10
"2131",7.0832228971085e-14
"2132",2.45757519672374e-05
"2133",1.8811272221364e-05
"2134",1.64172421213138e-08
"2135",1.47579835019229e-08
"2136",7.17513521937274e-05
"2137",0.00680260794566878
"2138",0.00779456724356076
"2139",1.7900423365802e-09
"2140",0.00321313448066829
"2141",1.44109678190674e-07
"2142",1.31405547384444e-05
"2143",7.46285139818781e-06
"2144",1.11022302462516e-16
"2145",2.15108935941455e-06
"2146",1.10987885548752e-11
"2147",7.22773130235055e-09
"2148",0.000187203676827674
"2149",8.69313510065695e-11
"2150",8.34843976837973e-07
"2151",5.99790659367994e-05
"2152",4.33077007588878e-09
"2153",9.65894031423886e-15
"2154",4.87703422091812e-08
"2155",0
"2156",0
"2157",2.87406830556947e-07
"2158",0
"2159",6.81282394110472e-06
"2160",2.17941416680301e-06
"2161",1.90005777778168e-09
"2162",1.4432899320127e-15
"2163",0
"2164",0.94750367699518
"2165",0.394675043651993
"2166",0.510498923666934
"2167",0
"2168",0.624503685954074
"2169",0.540797397821544
"2170",0.655409240280341
"2171",0.187077820223268
"2172",0.277029981025482
"2173",0.758489495728202
"2174",0.181014847891141
"2175",0.0891925066007291
"2176",1.12089127807247e-05
"2177",0.557765012676754
"2178",0.690895355421608
"2179",5.64295928873193e-08
"2180",0
"2181",7.44693362145776e-05
"2182",0.147987365235442
"2183",0.044812589385559
"2184",0.0300879833857844
"2185",0.239181373533955
"2186",0.235858937165172
"2187",0.314594416429438
"2188",0.0792452608036105
"2189",1.09520059687895e-10
"2190",0.826394098850011
"2191",0.07427591694511
"2192",0.535545109352093
"2193",0.530644719298159
"2194",0.00231274722979669
"2195",0.177897883792252
"2196",0.00196610216573789
"2197",0.000875805536231122
"2198",0.0243474458921814
"2199",1.48230317775777e-06
"2200",6.69497448479994e-07
"2201",2.3561296375707e-05
"2202",0.000532264528488979
"2203",0.00673987215609473
"2204",0.00340070155254713
"2205",0.000143630607577605
"2206",0.0842436763569698
"2207",1.57497796104966e-06
"2208",0.000601203094551916
"2209",1.20881082921187e-12
"2210",0.00548273659486653
"2211",0.0254781354589008
"2212",0
"2213",3.98424435454903e-06
"2214",0.0448434456386039
"2215",6.63319399407669e-11
"2216",4.77768786755206e-08
"2217",0.0139848074959721
"2218",1.81033019452936e-06
"2219",2.74386167675722e-07
"2220",0.589799267598773
"2221",0.140420179086437
"2222",0.000376349464891512
"2223",0.387218111228705
"2224",0.353665521212154
"2225",8.91514050249675e-07
"2226",7.25099541730723e-05
"2227",0
"2228",0
"2229",1.01696429055664e-13
"2230",0.829985452819094
"2231",0.164265780578332
"2232",0.028836712079448
"2233",2.22044604925031e-16
"2234",0.542448351539926
"2235",0.220020858403452
"2236",0.249825921998903
"2237",0.0289256115266319
"2238",0.2948705484103
"2239",0
"2240",0.0909107277133455
"2241",0
"2242",0.463184944208615
"2243",0
"2244",0.738268128769615
"2245",0.986363846632462
"2246",0.391875927102347
"2247",0.0490747033596867
"2248",0.0422211414124476
"2249",0.0648055095381407
"2250",0.47569578161554
"2251",0.774746120844964
"2252",0.296325539788739
"2253",0
"2254",0.674975685840355
"2255",0.456438984831643
"2256",0.819576643595204
"2257",2.83509882237354e-11
"2258",0.166138741546959
"2259",0.666470196778865
"2260",0.0746709112320446
"2261",0.971773132546244
"2262",0.136527345337727
"2263",0.0657066632624109
"2264",0.715178564730236
"2265",0
"2266",0.0985143966675627
"2267",0.977520173222279
"2268",0.00666545319843326
"2269",0
"2270",0
"2271",0
"2272",1.48353322536598e-05
"2273",1.0769163338864e-14
"2274",0.438944776837079
"2275",0
"2276",6.6140026747763e-05
"2277",0.00111550155262785
"2278",2.60971171428537e-06
"2279",0.0135862185798364
"2280",5.84317507601462e-07
"2281",0.0320583867077742
"2282",2.79572738914879e-06
"2283",1.21075949973681e-05
"2284",0.00431608523792071
"2285",0
"2286",0.0288222844755059
"2287",0.00156238296816336
"2288",0.139184809682094
"2289",2.55351295663786e-15
"2290",0
"2291",0.000878698924038357
"2292",0.112216414977163
"2293",0
"2294",0.0475339370936715
"2295",4.20912445120436e-07
"2296",0.0216441769918871
"2297",0.633659818786148
"2298",0.000417924348914189
"2299",1.12555548288373e-05
"2300",0.0233940915991619
"2301",0.000524721400687933
"2302",0.029298853925265
"2303",0.344379367415245
"2304",0.0948567863646359
"2305",0.00773718844752147
"2306",0.845275475117983
"2307",0.00334574406306487
"2308",0
"2309",0
"2310",0
"2311",0.000319878885189029
"2312",2.43836676885323e-05
"2313",0.0542350115408748
"2314",0.130722185888262
"2315",3.21964677141295e-15
"2316",7.80820086809797e-07
"2317",0.0315911393515841
"2318",0.0013285375674521
"2319",0.0988905502621009
"2320",0.244450901539206
"2321",0
"2322",0
"2323",0.00656820021948679
"2324",0.0612329607948855
"2325",0.563245757900596
"2326",0.088554964660142
"2327",0.075469354053183
"2328",0.00416940687858935
"2329",0.239271412103341
"2330",0.960804039133689
"2331",0.183356696337101
"2332",0.00584298541788408
"2333",0.183878574551017
"2334",0
"2335",0.120704199653603
"2336",0.0204931860230707
"2337",0
"2338",1.35406687183925e-05
"2339",1.63557412058424e-09
"2340",0
"2341",0.333313721705398
"2342",0
"2343",0
"2344",0.00261667516247732
"2345",0.00194771800982285
"2346",6.2710725501347e-10
"2347",0.0769814584466713
"2348",0.0042121830632873
"2349",0.205396051566434
"2350",0
"2351",8.38634628408386e-09
"2352",0
"2353",0
"2354",0
"2355",0.147773277968392
"2356",0.92912321843867
"2357",0.696553568486697
"2358",0
"2359",1.25455201782643e-14
"2360",0
"2361",0
"2362",0.220375507416557
"2363",0.011119128439476
"2364",0.810380394286419
"2365",0.82716382453849
"2366",8.65159055507547e-11
"2367",0.436856028248492
"2368",0
"2369",0
"2370",0
"2371",0.0092547056977812
"2372",0.186148897965768
"2373",0.78497916242805
"2374",0
"2375",0
"2376",0
"2377",0
"2378",0
"2379",0
"2380",0
"2381",2.57164609042126e-05
"2382",0.697791201497499
"2383",0.230439351702838
"2384",0.355712024361879
"2385",0.351535241433255
"2386",0.872718177323533
"2387",0.689393296005333
"2388",0.258684679820162
"2389",0.436751257306956
"2390",0.897809141634331
"2391",0.0166218776614654
"2392",0.300474242084224
"2393",0.292733796707123
"2394",8.23467557908852e-06
"2395",0.784772202302007
"2396",0.839530618883446
"2397",0
"2398",0
"2399",0.000201065267627643
"2400",0.373131561814814
"2401",0.998903289206028
"2402",0.729698308151665
"2403",0.290302900530809
"2404",0.0020980462251653
"2405",0.0287464305459354
"2406",0.052835518609581
"2407",0.637031374328523
"2408",0.893170664598199
"2409",0.703966809855427
"2410",0.781232131874086
"2411",0.156593004538694
"2412",0.05788549951435
"2413",0.9749641615594
"2414",0.232509963320895
"2415",2.73114864057789e-14
"2416",0
"2417",0
"2418",4.38538094726937e-13
"2419",0.402811209229252
"2420",0.34208472942918
"2421",0.0236251746352899
"2422",0.000115711750318992
"2423",5.32053279211908e-09
"2424",0.0211767283107176
"2425",8.46673042786961e-09
"2426",0.178577102459045
"2427",0.006694120918327
"2428",0.340895241094677
"2429",0.135435866962235
"2430",0.680775899480286
"2431",0.762791267207945
"2432",0.0601939664553532
"2433",0.284660936869161
"2434",0
"2435",0.0839153071708504
"2436",0.00040817980800878
"2437",0.501534691350299
"2438",8.54407374850652e-08
"2439",0.290631047872103
"2440",0.0443796257736115
"2441",0.095706167954864
"2442",0.642951960721922
"2443",1.27754473666641e-11
"2444",0.000192398014456807
"2445",0.23986817278759
"2446",1.65960073572613e-07
"2447",0.00505490142009368
"2448",0
"2449",7.72007013871701e-10
"2450",0.0918957271239594
"2451",8.53667376121692e-07
"2452",1.25095672531828e-06
"2453",0
"2454",0.278396277845203
"2455",0
"2456",0.114166585448017
"2457",0.0120264956949478
"2458",0.0791523823420008
"2459",0.00215652790066989
"2460",0.0630190819543679
"2461",0.000438410978096049
"2462",0.367554057242679
"2463",0.455215051523217
"2464",0.04903120605859
"2465",0.0232532707370873
"2466",0.013469293169897
"2467",4.79307746746871e-05
"2468",0.249171302154938
"2469",0.341029647274124
"2470",0.0122054189446682
"2471",0.14061802849273
"2472",0.000281448071120627
"2473",0.0186373284933778
"2474",0.0874017557724477
"2475",0.526062037819978
"2476",0.465404468511545
"2477",0.390202082345612
"2478",0.00744387326833085
"2479",0.51167221050904
"2480",0.0297333010281227
"2481",0.2191512104867
"2482",0.00553676712836682
"2483",0.00298857352433013
"2484",2.56704657530804e-11
"2485",0.140854779272711
"2486",0
"2487",0
"2488",0.0994398358426472
"2489",0.000132446058462188
"2490",0.659165230702958
"2491",0.26706638300614
"2492",0.319150468725531
"2493",0.113496763128536
"2494",0.617520597462444
"2495",0.000152073295401456
"2496",0.0307422270711794
"2497",0.397184093805941
"2498",0.20685588271535
"2499",5.55988250461326e-06
"2500",0.00540987485678046
"2501",5.69100322422855e-13
"2502",1.11022302462516e-16
"2503",0
"2504",0
"2505",0.000523612349291547
"2506",0.444026785436494
"2507",0.0528196780874064
"2508",4.74951357087861e-06
"2509",0.00242087298885807
"2510",0
"2511",0.00270093073646294
"2512",2.41156729112735e-05
"2513",0.0368115494476108
"2514",0.0217757600377207
"2515",0.863203172266656
"2516",0.743882067751723
"2517",0.628047816490053
"2518",0.62152978298021
"2519",0.849797560948931
"2520",6.32827124036339e-15
"2521",0.000582489952644871
"2522",0.0589965619201307
"2523",0.720026328237407
"2524",0
"2525",0
"2526",0
"2527",0.15177037556297
"2528",5.69574138468143e-05
"2529",0.36190874289986
"2530",0.432447252918649
"2531",0.269043456856081
"2532",0.150446587840891
"2533",0
"2534",0.0305757518883905
"2535",0.286427491809974
"2536",0
"2537",0
"2538",0.193125870651269
