"","x"
"1",0
"2",1.17634603169492e-08
"3",2.22044604925031e-16
"4",0.000139332218993982
"5",0
"6",0
"7",7.105427357601e-15
"8",0
"9",0.00094948063538669
"10",0
"11",8.18931511492593e-09
"12",0
"13",0
"14",0
"15",0
"16",0
"17",4.00213536022598e-06
"18",0.00240045337167716
"19",1.57284347435116e-07
"20",0
"21",0
"22",0
"23",0
"24",0
"25",0
"26",5.58687907048494e-09
"27",0
"28",0
"29",0
"30",0.390944532236904
"31",0.00402668555979546
"32",0
"33",0
"34",0
"35",0
"36",0
"37",0
"38",0
"39",0
"40",0
"41",0
"42",0
"43",0
"44",4.30766533554561e-13
"45",0
"46",1.11022302462516e-16
"47",0
"48",0
"49",0
"50",0
"51",0
"52",0
"53",0
"54",0.000775872558496205
"55",0.00144589953218177
"56",0.685491509207926
"57",4.05197746001784e-05
"58",7.58976017150026e-05
"59",0.374025705124543
"60",0.140573202576862
"61",0.226224969889193
"62",0.0568665314173924
"63",0.150220813487045
"64",0
"65",0.0233663903534577
"66",0.224701242158396
"67",0.353516899883665
"68",4.40493379630924e-05
"69",0.0619811817796997
"70",0
"71",0
"72",0
"73",0
"74",0
"75",0
"76",5.06890085461009e-11
"77",0
"78",0
"79",0
"80",0
"81",0
"82",0
"83",0
"84",0
"85",0
"86",0.000240196997331465
"87",0
"88",5.55111512312578e-16
"89",0
"90",0
"91",0
"92",0
"93",0
"94",3.89603904693558e-11
"95",0
"96",1.69866581467559e-07
"97",0
"98",0
"99",0
"100",0
"101",0
"102",0
"103",0
"104",0
"105",6.16171585976488e-08
"106",2.00633620828228e-10
"107",1.51978429840938e-11
"108",2.21454808124744e-06
"109",0.00150421758116137
"110",1.78640634729277e-07
"111",1.09579012530503e-13
"112",3.51084442740124e-07
"113",0
"114",0
"115",0
"116",0
"117",0
"118",0.000297871089999679
"119",2.24265050974282e-14
"120",0
"121",0
"122",0
"123",1.39594418246958e-08
"124",0
"125",2.22044604925031e-16
"126",0
"127",0
"128",0
"129",1.22536425450903e-11
"130",1.78229668801322e-08
"131",0.0638575054140714
"132",0
"133",0.0465963502717495
"134",0.00795808057730862
"135",0
"136",0
"137",0
"138",0
"139",5.96641025196742e-06
"140",0.0784836411620378
"141",0
"142",0
"143",0
"144",0
"145",0
"146",0
"147",0
"148",0
"149",0
"150",0
"151",0
"152",0
"153",0
"154",0
"155",0
"156",0
"157",0
"158",0
"159",0
"160",0
"161",0
"162",0
"163",0
"164",0
"165",0
"166",0
"167",0
"168",0
"169",0
"170",0
"171",0
"172",0
"173",0
"174",0
"175",0
"176",0
"177",0
"178",2.22044604925031e-15
"179",0
"180",0
"181",0
"182",0
"183",0
"184",0
"185",0
"186",0
"187",0
"188",0
"189",0
"190",0
"191",0
"192",0
"193",0
"194",0
"195",0
"196",0.104026389068678
"197",0
"198",3.19618494197815e-05
"199",2.06345506078565e-05
"200",0
"201",0.654847325972608
"202",1.16771826796924e-05
"203",0.0331431338754772
"204",0.624049065185883
"205",0
"206",0.00197049017548445
"207",0.000168901079181438
"208",0
"209",3.05555042046102e-07
"210",2.82990217214119e-05
"211",3.17749720171179e-05
"212",0
"213",0
"214",0
"215",0
"216",0
"217",7.7099741002673e-07
"218",0
"219",0
"220",0
"221",0
"222",0
"223",0
"224",0
"225",0
"226",0
"227",0.0306424475842109
"228",0.483996974692699
"229",0
"230",0
"231",0
"232",0.562838169054169
"233",0.017733360531572
"234",0.138111108131927
"235",0.0970245305031495
"236",0
"237",0
"238",0
"239",0
"240",0.220197751093503
"241",0
"242",0
"243",0.0622871361503775
"244",0.0295482299830004
"245",0.425040276616569
"246",9.38684685536373e-11
"247",0.00120147102374868
"248",0.76457593953325
"249",0.14419891716615
"250",0
"251",8.22675261247241e-13
"252",0.365828816656774
"253",0.00719502330912591
"254",0.00102361562945064
"255",0
"256",7.20600861694454e-05
"257",0
"258",0.146859671353751
"259",0.000207315061619973
"260",0
"261",0.0444443513382576
"262",0.00075445294363885
"263",3.71789315549709e-05
"264",0.0311769662467315
"265",0.00354073568598312
"266",0.10253269153845
"267",0
"268",0
"269",0.0169136446383623
"270",0.240679538930021
"271",0
"272",0
"273",0
"274",0
"275",0
"276",0
"277",0
"278",0
"279",0
"280",0
"281",0
"282",0
"283",0
"284",0
"285",0
"286",0
"287",0
"288",0
"289",0
"290",0
"291",0
"292",0
"293",0
"294",0
"295",0
"296",0
"297",0
"298",0.169595193827705
"299",0.134775375444217
"300",1.49880108324396e-14
"301",0.0229501083833973
"302",0
"303",0.000595747346138986
"304",0.0182440431550882
"305",3.90611649692119e-08
"306",1.88843848336617e-08
"307",0.0323087118258243
"308",0.0408148520653187
"309",3.73410658325302e-05
"310",0.0233079108050125
"311",0.000107817932870846
"312",0.0608355042829044
"313",0.102486707264979
"314",0
"315",0
"316",0
"317",0
"318",0
"319",2.51321186084397e-12
"320",0
"321",0
"322",0
"323",0
"324",0
"325",0
"326",0.0222671278676271
"327",3.6591951690923e-11
"328",0
"329",0
"330",0
"331",0
"332",0
"333",0
"334",0
"335",4.59909887950971e-12
"336",0
"337",0
"338",9.0368078902725e-05
"339",3.03777999643984e-07
"340",0
"341",0
"342",0.115995673741569
"343",8.92810170238789e-09
"344",0.133792000605783
"345",0
"346",0
"347",0
"348",0.607210032737355
"349",0
"350",0
"351",0
"352",0.691507555584275
"353",0.0119345387221521
"354",0.193553790830344
"355",1.11705307226373e-08
"356",0
"357",0
"358",0
"359",0.831836417744828
"360",0.610588730528604
"361",0.130012332112899
"362",0
"363",0.700587580822959
"364",0
"365",0
"366",0
"367",0.0936780800859816
"368",0.0042903785351972
"369",0
"370",0
"371",0
"372",0
"373",0
"374",0
"375",0.364652648914254
"376",0.00206455098658709
"377",0
"378",4.05922451776064e-05
"379",0
"380",0
"381",0.0809999421872688
"382",0
"383",0
"384",0.00873232839281701
"385",0.00622289025820155
"386",0.248072435259869
"387",8.08255161550697e-05
"388",0.0390444464004926
"389",0
"390",0
"391",0
"392",0
"393",0
"394",0
"395",0
"396",0.201137841301854
"397",0.278936496944227
"398",0.000240953837965741
"399",0
"400",0
"401",0
"402",0
"403",0
"404",0
"405",1.5589735968824e-07
"406",0
"407",0
"408",0
"409",0
"410",0
"411",0
"412",0
"413",0.186155464122549
"414",1.51800794156998e-12
"415",0
"416",0
"417",0.0160791070464618
"418",0
"419",0
"420",0
"421",0
"422",0
"423",0
"424",0
"425",0
"426",0
"427",0
"428",0
"429",0
"430",0.0126247124973697
"431",0.0287254541777016
"432",0.261362535370596
"433",0.0531147880280632
"434",0.861295182516953
"435",0.0159706445832654
"436",0.00554560066912202
"437",0.214979150052554
"438",0.0127855272665273
"439",0
"440",0
"441",0.0002025463511246
"442",0
"443",0
"444",0
"445",0
"446",5.93740945298293e-08
"447",1.71712972119042e-06
"448",0
"449",0
"450",8.88178419700125e-16
"451",0
"452",0
"453",0
"454",0
"455",0
"456",0
"457",0
"458",0
"459",0.00294055744768185
"460",0
"461",0.493907392302541
"462",0.442082401216819
"463",0.0847963324697167
"464",0
"465",0
"466",0.000314414178818612
"467",0
"468",0.166398817275617
"469",0.00049841687312302
"470",0.335832083841757
"471",0.341053168213181
"472",0
"473",0
"474",0.039636533905097
"475",0
"476",0.439591076268916
"477",0.800962818484847
"478",7.7715611723761e-16
"479",0.215722178887757
"480",0.462149557135477
"481",0.000672719497002761
"482",0.0469822268318323
"483",0.825025777257994
"484",0
"485",0
"486",0
"487",1.33226762955019e-15
"488",0.455286953056938
"489",0.78508427161716
"490",0.000116560458880977
"491",0.219711204135093
"492",4.32995051813378e-07
"493",0
"494",0
"495",0.064245999378316
"496",0.0581131253177251
"497",0
"498",0.206378122321195
"499",2.31635097658334e-07
"500",0.11873506950185
"501",0.00249870708330613
"502",0
"503",0
"504",9.26211543275102e-05
"505",0.0014986698411652
"506",8.7592452424623e-07
"507",0.00069431330488845
"508",7.88326143141838e-07
"509",0
"510",0
"511",0
"512",0
"513",0
"514",0
"515",0
"516",0
"517",0
"518",0
"519",0
"520",0
"521",0
"522",0
"523",0
"524",0
"525",0
"526",0
"527",0.520894661229351
"528",0.131314716779636
"529",6.266033762381e-05
"530",7.82100365470662e-05
"531",0.0231741649172384
"532",2.88979472150563e-05
"533",0.138201447741015
"534",0.00045608774801309
"535",0.0158882435144303
"536",5.28526726906176e-06
"537",0.0124660402279317
"538",0.688200235706839
"539",0.303460157065898
"540",0.377678160578266
"541",0.231509592544584
"542",0.198150433309298
"543",0.00138233345186023
"544",0.0681918631527549
"545",0
"546",0
"547",0
"548",0
"549",0
"550",0
"551",3.25336723914216e-05
"552",0
"553",0
"554",0
"555",0
"556",0
"557",0
"558",0
"559",0
"560",0
"561",0
"562",0
"563",0
"564",0
"565",0
"566",0
"567",0
"568",0
"569",0
"570",0
"571",1.09272590975706e-11
"572",0
"573",0
"574",0
"575",0
"576",0
"577",0
"578",0
"579",0
"580",1.49502632496024e-12
"581",0
"582",0
"583",0
"584",0
"585",0
"586",0
"587",0
"588",0
"589",0
"590",0
"591",0
"592",0
"593",0
"594",0
"595",0
"596",0
"597",0
"598",0
"599",0
"600",0
"601",0
"602",0
"603",0
"604",0
"605",0
"606",0
"607",0.0890530832886798
"608",2.04790151503431e-09
"609",1.40376802182374e-07
"610",6.39270412827742e-07
"611",0
"612",0
"613",0
"614",0
"615",0
"616",0
"617",0
"618",0
"619",0
"620",0
"621",6.31407550688579e-06
"622",0
"623",0
"624",0
"625",0
"626",0
"627",0
"628",0
"629",0
"630",5.91859894427671e-13
"631",0.12261861150269
"632",0
"633",0
"634",0
"635",1.79614922934945e-09
"636",0
"637",0
"638",0
"639",0.0179795393937821
"640",0
"641",0
"642",0
"643",0
"644",0
"645",0
"646",0
"647",0
"648",0.333168561143833
"649",0
"650",7.53526596675158e-09
"651",0
"652",0
"653",0
"654",0
"655",0.887113412730461
"656",0
"657",4.1056802402295e-09
"658",0
"659",0
"660",0
"661",0
"662",0
"663",0
"664",0
"665",0.654064112195697
"666",0
"667",0
"668",0
"669",0
"670",0
"671",0
"672",0
"673",0
"674",0
"675",0
"676",0
"677",0
"678",0
"679",0
"680",0
"681",0
"682",0
"683",0
"684",0
"685",0
"686",0
"687",0
"688",0
"689",0
"690",0
"691",0
"692",0
"693",0
"694",0
"695",0
"696",0.0283975851871675
"697",0
"698",0
"699",2.45293111478251e-06
"700",0.0066349277863913
"701",1.93178806284777e-14
"702",0
"703",0
"704",0
"705",0
"706",2.22044604925031e-16
"707",0
"708",0
"709",8.62185878247601e-11
"710",0
"711",0
"712",3.28615094025153e-08
"713",3.08579238520457e-05
"714",1.43535737739953e-08
"715",0
"716",3.14389230204881e-08
"717",0
"718",2.13762341161328e-12
"719",0
"720",4.65363930102214e-06
"721",0
"722",0
"723",0
"724",0
"725",0
"726",1.07163167228919e-11
"727",0
"728",0
"729",0
"730",0
"731",0
"732",0
"733",0
"734",0
"735",0
"736",0
"737",0.0030820402059123
"738",0
"739",0
"740",0
"741",0
"742",0
"743",0
"744",3.69431929492237e-10
"745",0.000357793826571529
"746",0
"747",0
"748",9.9798300678966e-07
"749",0.000145950221127289
"750",0.944086337703819
"751",0
"752",0.00453186796421445
"753",9.92328441640211e-12
"754",0
"755",5.24410515012619e-11
"756",0.156294195539288
"757",0.00347004266722739
"758",0.0754486411840611
"759",0.0455008280935193
"760",0.046059009152682
"761",0.00875397074722739
"762",1.67952921903414e-07
"763",4.03344091459701e-09
"764",0.000104998847548554
"765",0
"766",0
"767",0.0085088551648913
"768",0
"769",2.58681964737661e-14
"770",0.0773093615402489
"771",5.26911847487099e-13
"772",0
"773",0
"774",0
"775",0.0748414774041505
"776",1.02140518265514e-14
"777",0.258470271760304
"778",1.15491871621742e-09
"779",0.0298874801771505
"780",0
"781",0.0590711325945085
"782",3.25206136893019e-05
"783",0.00290269301948076
"784",0
"785",0.00202342015607981
"786",0.0442114600747497
"787",3.79990916510309e-09
"788",0
"789",0
"790",0
"791",0
"792",0.463451258958292
"793",0.144280780015804
"794",0.0011740363720244
"795",0
"796",0.365452886352004
"797",0.702394560040748
"798",0.00263195166674191
"799",0.0135289834182688
"800",0
"801",0
"802",0
"803",0.0633579580272232
"804",5.98352384086898e-05
"805",0.000250332377575102
"806",0.267527539592442
"807",0
"808",0
"809",0.426718622390547
"810",0.000193118319084529
"811",0.00137710378888023
"812",7.12450169300105e-05
"813",0.0253731913100513
"814",0
"815",0.00414706818835575
"816",0
"817",0.193273997222418
"818",0.00144993381922853
"819",5.38650631676241e-06
"820",0.130874857701557
"821",0.589822440239298
"822",0.00107216202149774
"823",0.172528862769573
"824",0.275254006499023
"825",1.02448161065638e-09
"826",0.496326387113578
"827",0
"828",0
"829",0.967451224512761
"830",0
"831",0
"832",0
"833",1.14459164368697e-09
"834",0
"835",0.268060166308809
"836",6.6617600325003e-11
"837",0
"838",9.54476675474325e-09
"839",3.87957157454988e-06
"840",0.301021343136795
"841",0
"842",1.22446497385909e-12
"843",3.49720252756924e-14
"844",0
"845",0
"846",0.0329388204767211
"847",2.13525564396466e-06
"848",1.11022302462516e-16
"849",1.55503385723677e-07
"850",0.000347124416534839
"851",1.90965021573675e-11
"852",0.0571414982713202
"853",1.24910415344459e-10
"854",4.50399384455125e-09
"855",0
"856",0
"857",0
"858",0
"859",0
"860",0
"861",0
