"","x"
"1",1.11466391672366e-13
"2",8.17684832654653e-06
"3",1.52412527043566e-09
"4",9.38767608094082e-08
"5",7.86037901434611e-14
"6",9.56718393396727e-09
"7",2.98627789163675e-12
"8",8.78439205976855e-05
"9",2.12195816473582e-11
"10",0
"11",0
"12",0.0256477167351569
"13",0.000631122155265618
"14",0.0395195105118323
"15",0.00703990377698271
"16",1.55431223447522e-15
"17",0.785741788946659
"18",0.0476782233672354
"19",0.000333937178572774
"20",0.117398191151271
"21",0.155933138649338
"22",0.0506167171378069
"23",0.0274098120429987
"24",0.000395316061426954
"25",0.285924941074253
"26",0.00609693917273935
"27",1.11327362661839e-07
"28",0.00100270226558663
"29",3.24514036953438e-05
"30",0.00503463816577843
"31",2.05440331413342e-10
"32",0.00018684738828223
"33",0
"34",0.000148549050447255
"35",0.0046311998480858
"36",0.000933541612787692
"37",1.51031740591723e-06
"38",2.07064300963289e-05
"39",2.01665177697041e-05
"40",0.267196019487395
"41",9.3812436152696e-07
"42",1.33235993127201e-07
"43",0.0154639969289772
"44",0.00285293954439669
"45",0.063868422818239
"46",2.97864066745035e-09
"47",2.58955412668627e-10
"48",2.05752292359307e-06
"49",0.224956182203531
"50",0.0704114969342604
"51",5.45328411554191e-05
"52",9.4978161371162e-05
"53",0.133851303635997
"54",0.000256585642568918
"55",0.775201413041156
"56",0.0184864391309236
"57",0.0026569220031748
"58",0.0634442011070757
"59",0.000297905264255771
"60",0.00100030453331612
"61",6.53685957958672e-05
"62",8.54265003180643e-09
"63",3.42716103592933e-05
"64",0.098463703253182
"65",0.00115108175042666
"66",0.00106590977218257
"67",0.00344523094444982
"68",0.202140208499423
"69",0.150706056193377
"70",0.0123445341843857
"71",7.59099733649293e-06
"72",5.59021424834105e-05
"73",0.00567395624801348
"74",0.000129657849490927
"75",0.0175589137066104
"76",4.60646442335122e-06
"77",9.38654098892044e-08
"78",0.185186369935392
"79",1.93955623406517e-06
"80",0.0496223358887721
"81",0.118359003477229
"82",0.0608067880603569
"83",0.0465516622412726
"84",6.24360480303565e-05
"85",4.49638420978449e-05
"86",0.119610389649055
"87",0.024408394930327
"88",0.000955095420637542
"89",1.86350953754744e-05
"90",0.00257314127007346
"91",0.000213517889342318
"92",0.000190271844223489
"93",0.573675512833853
"94",0.0964187991688443
"95",0.0616345083831961
"96",0.00190143976367951
"97",0.660577732918685
"98",0.000272456213487038
"99",0.0193752608873188
"100",0.0244696726385945
"101",0.00429995692493101
"102",0.382379132096835
"103",0.000215195143690061
"104",0.0727354528172243
"105",0.250053883375516
"106",0.0163539207767592
"107",8.31603839366313e-05
"108",0.000429879908160125
"109",0.00483236492397709
"110",0.198168399936793
"111",0.18147570876695
"112",0.0158009786309066
"113",0.0110957211838807
"114",0.00223294960204212
"115",0.0213610813337697
"116",0.000151743962424344
"117",0.239547010878892
"118",0.0451439414746192
"119",0.000461263984099292
"120",0.0149972606964981
"121",0.144604331218709
"122",0.0516871976636744
"123",0.0547486410413692
"124",1.91486021385856e-05
"125",0.000806516553869652
"126",0.108505840770994
"127",0.0301334263049086
"128",0.00255515457225897
"129",0
"130",0.00138441465572581
"131",0.128368349195896
"132",0.0261801320154007
"133",2.17581200390171e-07
"134",0.393095296985652
"135",0.00468965551244138
"136",3.73340152126644e-08
"137",0.0115038335323355
"138",0.665785331609751
"139",0.250609823287805
"140",0.245358914012215
"141",7.28836682241107e-05
"142",0.0756726213857195
"143",0.00605883758747094
"144",0.107423950717157
"145",0.00723403206676898
"146",1.05504674996482e-08
"147",0.122149413564252
"148",0.043230888813946
"149",1.18140225350283e-05
"150",0.248697475191949
"151",1.13796180362113e-05
"152",2.08263259957597e-05
"153",0.154768550725861
"154",0.0122598032869808
"155",0.267468541488775
"156",0.157705577497818
"157",0.0415500601416045
"158",0.000956962847398435
"159",0.13180009743721
"160",0.00125908563077382
"161",0.00506491172999557
"162",0.0355496663699991
"163",0.178095729068333
"164",0.00372634209161582
"165",0.0361183054593758
"166",0.0352298798054389
"167",2.52446933155515e-05
"168",0.200711606388403
"169",0.0767612900536911
"170",3.64210688413857e-05
"171",0.00287342123150569
"172",0.0432749002124223
"173",0.00441097140334468
"174",0.061760285550824
"175",1.55854221216556e-05
"176",0.00170346294772228
"177",0.000151574996207104
"178",0.0394628527521806
"179",0.0287507530710989
"180",0.0443507156807118
"181",0.0274539794014477
"182",0.11722749652945
"183",0.000797670593332467
"184",0.0243235998409536
"185",0.248826069017655
"186",0.000618560015357761
"187",0.00315135907031605
"188",0.0701784826821414
"189",0.0432537945873122
"190",0.0160502948507
"191",0.0392310559996607
"192",0.331738518042463
"193",0.212812643816452
"194",0.0199168469897871
"195",5.20340608592962e-05
"196",0.0464048737158875
"197",4.14907509554974e-05
"198",0.273722791634068
"199",0.644846433281717
"200",0.0338156043152357
"201",0.0230309199917912
"202",0.0139021332628686
"203",0.00985141116109933
"204",0.0176610632834074
"205",0.160731978060484
"206",0.0243083704505402
"207",2.06648971001755e-06
"208",0
"209",8.63057690869695e-08
"210",0.00126120512885952
"211",0.0213076255396738
"212",0.263793740556154
"213",0.00218192781962656
"214",0.246688995366173
"215",0.457359132042983
"216",0.0293744141228672
"217",0.000450862054010792
"218",0
"219",0.0820516503916322
"220",1.07691299453538e-05
"221",1.28210178559351e-05
"222",0.181306786559424
"223",0.126385476873594
"224",0.0362760049960682
"225",2.63835459035633e-06
"226",0.00999343242385753
"227",0.0205969588698746
"228",0
"229",1.33659749934623e-12
"230",3.37110961368126e-09
"231",0.000306471442203415
"232",0.0403959916545096
"233",6.48082441467857e-05
"234",0.000236004155102165
"235",0.00125837574647214
"236",0.43444636932541
"237",0.0463579298901561
"238",0.0109839114561395
"239",0.0225494900084251
"240",0.28868600924035
"241",0.275706277504552
"242",0.199023840906025
"243",0.043992033612862
"244",7.70248064763113e-05
"245",0.0407332030368543
"246",0.699112551312921
"247",1.44314431738124e-07
"248",8.5950942150248e-06
"249",0.367843645713951
"250",0.304634077076062
"251",0.0637366730856881
"252",0.093037271435805
"253",0.004756053488011
"254",0.0570607793377633
"255",4.65904254842719e-07
"256",0.00322210934869149
"257",0.0257290219992947
"258",0.000240214355572421
"259",0.223020667074292
"260",4.72469891621419e-06
"261",0.0185394631501371
"262",0.471736381087039
"263",0.000384612030989051
"264",0.0056595676007859
"265",0.062738674017184
"266",0.0012471841089754
"267",0.0628468307152342
"268",4.40298860038268e-07
"269",0.349953081463831
"270",0.156453747010121
"271",0.00172033136571559
"272",2.47360863125934e-07
"273",0.0806086938918001
"274",0.129761057110749
"275",0.00352417081243317
"276",0.000208284509510825
"277",3.29532459587556e-05
"278",3.66193725831465e-06
"279",0.0966006780659752
"280",0.00117126921286204
"281",0.00140469871494209
"282",0.0075796599052721
"283",0.0553541019930112
"284",0.0715937201490195
"285",0.00241740196022666
"286",1.5558948707195e-07
"287",5.26821823140233e-05
"288",1.102558830679e-06
"289",0.000705971062515576
"290",1.25038313036896e-10
"291",0.010943824859459
"292",0.0783183427978935
"293",0.000644378043922367
"294",0.00558961266841784
"295",0.354235805162506
"296",0.103300159753212
"297",2.36746745850835e-05
"298",0.0064350148817951
"299",0.00159795396982521
"300",0.0279332465899893
"301",1.52655665885959e-13
"302",0.0017104845644148
"303",0.139102799404152
"304",2.33146835171283e-15
"305",2.9143198726489e-06
"306",1.88413393775733e-08
"307",8.844036614164e-13
"308",1.31905597555715e-12
"309",0
"310",0
"311",2.77555756156289e-15
"312",6.25281271204869e-10
"313",0.00900510352403416
"314",7.2400199422229e-05
"315",0.00128210527011119
"316",0.210288913389085
"317",0.000682090899296606
"318",0.000418142655710274
"319",0.00861401089202751
"320",1.14486518911772e-05
"321",0
"322",0
"323",0.152448147550943
"324",0.00552165770667778
"325",0.021642974821916
"326",1.38331251765544e-05
"327",0.00225650176783843
"328",0.741941978324843
"329",0.00225671323598065
"330",0.10924949677356
"331",0.0048673305168685
"332",0.000675874019190337
"333",7.4557822138388e-08
"334",0.374613088918947
"335",0.312679514850754
"336",0.000150295415705326
"337",8.93092849574284e-06
"338",0.000661411808504542
"339",0.000112709821319279
"340",0.00141989564418976
"341",0.00972009308543564
"342",2.95554863360969e-07
"343",0.303275965106334
"344",0
"345",4.73394281552686e-08
"346",0
"347",0
"348",6.83645362542507e-11
"349",0.0433954806370588
"350",0.00258953019924335
"351",1.11595209983939e-06
"352",0.000291701486831664
"353",0.0789526750401792
"354",0.00861522515047508
"355",2.37630845001391e-08
"356",0.680601798067839
"357",0.00432397326825662
"358",0.000125239605528127
"359",0.000216359008727629
"360",3.92706441632029e-06
"361",0.000815562563068806
"362",0.00144392117503345
"363",0.000280527586259405
"364",0.0133865421695539
"365",0.0435166729355471
"366",0.000718386976169327
"367",0.000249912892690496
"368",1.05430854746569e-06
"369",0.000138393359725764
"370",0.454059227877314
"371",0.0266330319697698
"372",0.000115483789207116
"373",5.96892535398297e-10
"374",2.48689957516035e-14
"375",1.05653258364313e-08
"376",0.00091943399164307
"377",4.27465285390838e-10
"378",7.60230458585198e-08
"379",0.000211608615449665
"380",4.89391498659231e-06
"381",0.000577152126032598
"382",3.36151861901612e-09
"383",5.81551116773937e-06
"384",1.55624876740923e-06
"385",3.77259119055395e-06
"386",0.0686964060228294
"387",1.83619211879815e-06
"388",0.0153091152075397
"389",0.0001126831558389
"390",0.00264605242632021
"391",7.98203156904265e-08
"392",0.0014077025771938
"393",3.32408441527932e-06
"394",0.00129935608109366
"395",6.86845348374376e-08
"396",0.337485423445125
"397",0.000509241563480423
"398",0.0217407528257008
"399",7.62965115241876e-06
"400",0.000409012461426217
"401",5.03130870299628e-12
"402",0.00705450041360101
"403",0.000740652005557618
"404",0.0163757549064171
"405",3.45560343650853e-06
"406",7.2317067375538e-06
"407",1.76750903680967e-05
"408",0.0111621594149752
"409",0.105740333958435
"410",5.82045202676129e-05
"411",2.93086624739702e-05
"412",6.06084762739822e-05
"413",0.00101457383075032
"414",1.13797860024079e-12
"415",0.0653947953087275
"416",0.0289442263268287
"417",0.0144654791293352
"418",0.000312637567541074
"419",0.0400483930439067
"420",5.30798505549157e-06
"421",0.0811068091745876
"422",4.17465245072801e-06
"423",1.15107923193136e-12
"424",0.000824506791720525
"425",0
"426",0.118466814798836
"427",1.69533187488469e-09
"428",4.19331236400922e-12
"429",0.00254503257450855
"430",0.00237062142477729
"431",1.68374669535787e-05
"432",0.00250076064775973
"433",0.0337151822523514
"434",1.38831105022108e-05
"435",2.03100203322037e-10
"436",1.23020698219456e-05
"437",0.359280421599509
"438",0.00105580973001618
"439",0.197005338641955
"440",0.000170950732465425
"441",4.28601740021239e-06
"442",0.143088965880965
"443",2.35820698524236e-07
"444",3.11956238618905e-09
"445",9.68863621819693e-06
"446",0.00190735832777522
"447",0.00891056128267842
"448",0.133004927245589
"449",0.0110780477495523
"450",0.0162616645520939
"451",4.45823075923002e-06
"452",0.00555220537350676
"453",0.00285429366315471
"454",0.00122556835561427
"455",0.00848699047555102
"456",6.66900012991078e-09
"457",0.0395196258217949
"458",0.000125566510776332
"459",4.75210305994622e-07
"460",0.0463904335450817
"461",0.000262911744659533
"462",6.49668933848657e-05
"463",0.000702296040472228
"464",0.000469201091998661
"465",0.0108410159025887
"466",0.00239372780515723
"467",3.99767996484002e-11
"468",0.00162182420134349
"469",0.00147635277393521
"470",6.21778940302908e-05
"471",6.61537002955015e-09
"472",0.000971455345120775
"473",0.0162906357893716
"474",0.00321618517945532
"475",8.85900910486681e-05
"476",6.69920707729865e-06
"477",0.000433250490756376
"478",8.62723091498152e-05
"479",5.64353251086835e-06
"480",2.78213461325505e-05
"481",7.22536915853667e-07
"482",0.000191681862942827
"483",6.38056474910886e-06
"484",0.000471476998013309
"485",1.63284419096854e-07
"486",0.00304473625181201
"487",6.88747061814432e-05
"488",0.000257600906355626
"489",1.05490326653968e-05
"490",1.11022302462516e-16
"491",9.2824134574232e-05
"492",4.37382881024462e-08
"493",1.32304784439263e-05
"494",9.4020347063406e-12
"495",1.38390093828988e-07
"496",0.147215779798264
"497",4.63247827431346e-07
"498",9.38330080302308e-10
"499",3.53587825685509e-10
"500",0
"501",2.11513284664733e-08
"502",0.237617567780683
"503",0.0153612518907904
"504",0.000122998757883908
"505",0.0141951658103043
"506",0.0103931930729141
"507",4.06837328270626e-07
"508",5.56776846849516e-13
"509",0.00212491425346306
"510",0.00182108587655183
"511",0.00197458209215895
"512",1.74150693865727e-11
"513",3.34670327006847e-08
"514",0.171686992652782
"515",1.12582565175989e-05
"516",1.58176843578772e-06
"517",0.0225084760667144
"518",0.000450794708875324
"519",0.116148709104758
"520",0
"521",6.46423566039722e-05
"522",0.00161457820826283
"523",0.00673492182966717
"524",2.28372876165395e-13
"525",0.100924908962307
"526",0.000871151793829794
"527",0.0252705502992493
"528",0
"529",0.087640360978136
"530",0.127274796396554
"531",0.00233210153699415
"532",1.95873550712378e-09
"533",0.00111374073470105
"534",1.84998374933576e-05
"535",0.0689422837573708
"536",5.88223914987918e-06
"537",0.43331010460954
"538",0.066287085440466
"539",5.147660075977e-11
"540",0.0839944793381111
"541",0.000360280651588774
"542",6.88782364477447e-13
"543",0.0112847475041982
"544",1.39670705001649e-08
"545",1.9403627157244e-06
"546",0.00146512567323664
"547",0.00360132414695691
"548",1.54522904138865e-06
"549",2.23982954816737e-06
"550",5.10185071966873e-09
"551",6.34165664274988e-05
"552",0.0362952670715809
"553",0.103788132596346
"554",0.02545939771725
"555",1.9771717596484e-10
"556",1.69999584409553e-08
"557",7.57804929918393e-12
"558",0.232985922434229
"559",5.50976929636349e-08
"560",0
"561",0
"562",1.13242748511766e-14
"563",9.24270519772064e-05
"564",0.00233142322704472
"565",2.46145953408661e-05
"566",0.0347415997634359
"567",0.0947234054383652
"568",3.79500927520926e-05
"569",1.34290819684413e-05
"570",5.23389365914007e-06
"571",6.88577249596811e-06
"572",0.00976521820748955
"573",0
"574",0.0113813202501785
"575",0.005741616893704
"576",0.00406553901575157
"577",0.00141807486823986
"578",0.000179860780807339
"579",0.000132991407772232
"580",2.10158764325508e-05
"581",9.19508693615345e-05
"582",2.73161611819006e-06
"583",4.87981705917795e-05
"584",1.22173752601373e-05
"585",2.99130770153866e-07
"586",2.62276628193447e-08
"587",1.93798062385619e-05
"588",0.0742960030496145
"589",0.0528264535586247
"590",1.17265617246565e-05
"591",4.65763680546072e-06
"592",2.65466315596541e-10
"593",4.64870768801529e-05
"594",5.26934762490328e-09
"595",2.96255374954146e-06
"596",0.000279843367345212
"597",4.95052483451275e-06
"598",5.15365528030998e-13
"599",0.0181695709741778
"600",0.165088603988831
"601",9.27169677866768e-05
"602",0.139213206726126
"603",0.016341067814606
"604",0.000551231377931116
"605",0.000495190536041301
"606",0
"607",1.04101172127002e-10
"608",0
"609",0
"610",1.45106149318508e-13
"611",7.15233088366407e-06
"612",4.33946258519002e-05
"613",4.53691367330311e-06
"614",3.54161144855425e-14
"615",0
"616",0
"617",0
"618",0.0923059944239479
"619",0.0328706973861563
"620",2.87639613349988e-07
"621",0.0986519434425669
"622",0.034069017767948
"623",0.0160672172759004
"624",0.000445438577480251
"625",2.25740537374008e-10
"626",0.00232489222195575
"627",0.782110616375459
"628",2.00540371420033e-07
"629",0.0016258314047376
"630",0.305848228886538
"631",0.000159790478351907
"632",0.188221233604328
"633",0.0061018075140562
"634",0.0366512295931299
"635",3.2300650398831e-07
"636",0.0536461365709637
"637",0.000898311221002257
"638",0.000169360221770831
"639",9.31599242193215e-12
"640",0.00437556574845888
"641",2.9046052174575e-07
"642",2.5298452221989e-10
"643",0.015224675400122
"644",0.685940690595313
"645",0.00403560109177203
"646",0.000194621823670915
"647",6.53921361504217e-13
"648",0.000494548776500792
"649",3.12677863230082e-05
"650",4.7465744574815e-06
"651",3.81079412470342e-09
"652",1.73605574360636e-12
"653",3.07335326077407e-08
"654",0.00945583977635267
"655",0.0208358541325011
"656",1.09050546370781e-11
"657",0.561912175942518
"658",0
"659",1.88728366268265e-10
"660",0.00568761011090435
"661",2.88006152437958e-06
"662",0.204942830419302
"663",2.44249065417534e-14
"664",4.96116374648636e-08
"665",1.94478484086824e-05
"666",1.54929381546154e-08
"667",0.130438718389617
"668",0.0199040509839546
"669",1.11022302462516e-15
"670",4.14047407470974e-09
"671",1.61665125730792e-11
"672",0.146251935422308
"673",0.00139410214762192
"674",2.89634982664211e-12
"675",0.470537827909168
"676",2.37811296766033e-06
"677",6.25883789240333e-10
"678",2.26213398990538e-06
"679",2.56461518688411e-14
"680",8.72907646165544e-09
"681",5.2542990611415e-05
"682",0.428260278796896
"683",4.68841632184080e-11
"684",0.0108858889331915
"685",0.171547093852654
"686",4.45199432874688e-14
"687",0.632294321356304
"688",0.532188215002558
"689",0.00148020853371367
"690",0.379924381350897
"691",0.224877502161846
"692",0.000255853132556605
"693",0
"694",1.52521772989189e-10
"695",0.000200671371338279
"696",0.00703976586341626
"697",0.00140277387827259
"698",1.18335025534044e-06
"699",0
"700",0.0186188013041446
"701",6.24500451351651e-13
"702",0
"703",5.50263783501981e-05
"704",0
"705",0.00101628862508008
"706",0
"707",6.87799784793164e-07
"708",5.26948722523457e-06
"709",0.000559887684444926
"710",0.14882534350909
"711",0
"712",0
"713",0.000371290578416783
"714",0.00261682150876275
"715",0.000197933611619683
"716",0.284429988082651
"717",7.75057543985769e-05
"718",1.53395784963095e-09
"719",5.87958726150362e-09
"720",0
"721",0
"722",7.37975068298979e-06
"723",2.22044604925031e-16
"724",3.00337532621597e-11
"725",0.00522133869464247
"726",4.61585447641966e-09
"727",7.79527416483461e-05
"728",3.41171535467311e-13
"729",0.0297882928309386
"730",0
"731",0.000248643589048525
"732",0.00313536799294378
"733",0.206354711191102
"734",6.66133814775094e-16
"735",0.00976963669729847
"736",4.75315086364558e-05
"737",0.00986607567464781
"738",3.24771281350333e-05
"739",4.02682760802797e-07
"740",0
"741",0
"742",0
"743",5.13505904464751e-10
"744",3.03399013468209e-07
"745",0
"746",7.90362664482291e-06
"747",1.82285458363296e-05
"748",0.046169469105023
"749",0.00087123393423727
"750",0.0116390640719942
"751",0.000281278538550089
"752",3.99347863558885e-05
"753",5.4845041586038e-07
"754",0.0237042155004205
"755",0.00012475764174158
"756",0.574570005318182
"757",0
"758",4.51720514993426e-07
"759",0
"760",6.39169828176023e-11
"761",3.78851705562511e-09
"762",6.6968202794282e-07
"763",1.007016692256e-11
"764",0
"765",0
"766",3.12605497043705e-12
"767",0
"768",0
"769",1.39652234221188e-09
"770",0
"771",0
"772",0
"773",2.66453525910038e-15
"774",0.000118387744460047
"775",7.89590615113411e-13
"776",0.0033198950432799
"777",1.2214685241041e-07
"778",0
"779",3.33066907387547e-16
"780",1.23224985770776e-09
"781",0
"782",4.45494583334316e-07
"783",0
"784",0
"785",0.000109209110398689
"786",0
"787",1.88030113146276e-07
"788",1.47704894786216e-05
"789",1.47377330672605e-07
"790",0.00403837426373688
"791",0.0144791329682474
"792",0.62681537571154
"793",0.33373750325854
"794",1.09876552301102e-10
"795",0.000680378089240818
"796",4.28640540839353e-08
"797",0.449416619885268
"798",9.8885982080632e-05
"799",0.232155537635028
"800",1.00023322957554e-11
"801",0.204567847163977
"802",0
"803",0
"804",0.000681639741848983
"805",0.00262801790300338
"806",0.0141985384811605
"807",0.137214451532171
"808",0.269532311619575
"809",0.0287114479016867
"810",0.000164983591824819
"811",0.0156076085270915
"812",0.000116781251498166
"813",7.57269521212134e-06
"814",0.398277647030845
"815",4.81578710254116e-06
"816",0
"817",0
"818",8.13368527052827e-06
"819",0.0187977744617711
"820",0.0408983252775909
"821",0.137566899377388
"822",2.33146835171283e-15
"823",0
"824",0
"825",0
"826",0.0480071095800598
"827",0.260157711091822
"828",0.577447566012002
"829",2.31264932759601e-08
"830",9.57789403344123e-13
"831",5.96462154199839e-05
"832",0.0400289486466185
"833",0.0569974335046839
"834",0.00146877496528064
"835",1.28785870856518e-14
"836",4.13558067158259e-05
"837",0.000121385034862698
"838",4.6717374913019e-07
"839",0.727923209088409
"840",0.218326795350067
"841",0.44772973708861
"842",0.0941785406850868
"843",0.255431069055849
"844",3.87061666333732e-05
"845",1.75648179190357e-06
"846",7.74150624160974e-07
"847",3.10862446895044e-15
"848",0.0788679221454968
"849",3.89133308575929e-07
"850",0.111865970751277
"851",3.92768062518201e-09
"852",0.00129153553918127
"853",0.0884366777311864
"854",0.0599474553027756
"855",8.8275345480171e-05
"856",0.000237817009868579
"857",0.000304479606308639
"858",1.48241308117747e-09
"859",0.0408559321863701
"860",4.31216069218809e-05
"861",1.91312521380382e-10
"862",0.000465583375691248
"863",0.00375742479152708
"864",1.44961422310352e-06
"865",0.000209931051837864
"866",0.00293445598159925
"867",1.72957042372524e-05
"868",0.00218670770649365
"869",6.97824600326413e-07
"870",1.27132860949786e-06
"871",0.00913599684509347
"872",6.51714778809875e-08
"873",0.0113929819525432
"874",4.36695124506059e-12
"875",0.728882896746313
"876",0.0123902067021893
"877",4.66052405381223e-05
"878",0.0758407900345422
"879",0.012135632684974
"880",0.00517852211995029
"881",0.000159257204447316
"882",0.117058907959278
"883",0.0139083549375859
"884",0.0552297702836428
"885",0.0150169077718404
"886",0.230416562006862
"887",0.00627250900642873
"888",0.0748775665548352
"889",0.0626694552345419
"890",0.0249704225392244
"891",0.00112591757903613
"892",0.000102957681627713
"893",0.0319890076058272
"894",8.77886223147328e-05
"895",0.661335744869553
"896",0.038055257874249
"897",0.050409866854682
"898",4.22593975470953e-05
"899",0.0114710121119489
"900",0.661852869330448
"901",0.00427605535071629
"902",0.000306342479538313
"903",5.987158053955e-05
"904",0.000272400895374614
"905",0.0955684312121805
"906",4.22725999433826e-05
"907",0.0198315131033403
"908",0.00101949716505678
"909",0.050887345694426
"910",0.131170293446516
"911",0.00820840644456522
"912",0.553174277539513
"913",0.000923851767198336
"914",0.016023878910036
"915",0.10031467146984
"916",0.00620443323368769
"917",0.000405218069714497
"918",0.0218835697020047
"919",0.0273428045114769
"920",0.174266930264339
"921",0
"922",8.17684832654653e-06
"923",1.52412527043566e-09
"924",9.38767608094082e-08
"925",7.86037901434611e-14
"926",9.56718393396727e-09
"927",2.98627789163675e-12
"928",8.78439205976855e-05
"929",2.12195816473582e-11
"930",0
"931",0
"932",0.0256477167351569
"933",0.000631122155265618
"934",0.0395195105118323
"935",0.00703990377698271
"936",1.55431223447522e-15
"937",0.785741788946659
"938",0.0476782233672354
"939",0.000333937178572774
"940",0.117398191151271
"941",0.155933138649338
"942",0.0506167171378069
"943",0.0274098120429987
"944",0.000395316061426954
"945",0.285924941074253
"946",0.00609693917273935
"947",1.11327362661839e-07
"948",0.00100270226558663
"949",3.24514036953438e-05
"950",0.00503463816577843
"951",2.05440331413342e-10
"952",0.00018684738828223
"953",0
"954",0.000148549050447255
"955",0.0046311998480858
"956",0.000933541612787692
"957",1.51031740591723e-06
"958",2.07064300963289e-05
"959",2.01665177697041e-05
"960",0.267196019487395
"961",9.3812436152696e-07
"962",1.33235993127201e-07
"963",0.0154639969289772
"964",0.00285293954439669
"965",0.063868422818239
"966",2.97864066745035e-09
"967",2.58955412668627e-10
"968",2.05752292359307e-06
"969",0.224956182203531
"970",0.0704114969342604
"971",5.45328411554191e-05
"972",9.4978161371162e-05
"973",0.133851303635997
"974",0.000256585642568918
"975",0.775201413041156
"976",0.0184864391309236
"977",0.0026569220031748
"978",0.0634442011070757
"979",0.000297905264255771
"980",0.00100030453331612
"981",6.53685957958672e-05
"982",8.54265003180643e-09
"983",3.42716103592933e-05
"984",0.098463703253182
"985",0.00115108175042666
"986",0.00106590977218257
"987",0.00344523094444982
"988",0.202140208499423
"989",0.150706056193377
"990",0.0123445341843857
"991",7.59099733649293e-06
"992",5.59021424834105e-05
"993",0.00567395624801348
"994",0.000129657849490927
"995",0.0175589137066104
"996",4.60646442335122e-06
"997",9.38654098892044e-08
"998",0.185186369935392
"999",1.93955623406517e-06
"1000",0.0496223358887721
"1001",0.118359003477229
"1002",0.0608067880603569
"1003",0.0465516622412726
"1004",6.24360480303565e-05
"1005",4.49638420978449e-05
"1006",0.119610389649055
"1007",0.024408394930327
"1008",0.000955095420637542
"1009",1.86350953754744e-05
"1010",0.00257314127007346
"1011",0.000213517889342318
"1012",0.000190271844223489
"1013",0.573675512833853
"1014",0.0964187991688443
"1015",0.0616345083831961
"1016",0.00190143976367951
"1017",0.660577732918685
"1018",0.000272456213487038
"1019",0.0193752608873188
"1020",0.0244696726385945
"1021",0.00429995692493101
"1022",0.382379132096835
"1023",0.000215195143690061
"1024",0.0727354528172243
"1025",0.250053883375516
"1026",0.0163539207767592
"1027",8.31603839366313e-05
"1028",0.000429879908160125
"1029",0.00483236492397709
"1030",0.198168399936793
"1031",0.18147570876695
"1032",0.0158009786309066
"1033",0.0110957211838807
"1034",0.00223294960204212
"1035",0.0213610813337697
"1036",0.000151743962424344
"1037",0.239547010878892
"1038",0.0451439414746192
"1039",0.000461263984099292
"1040",0.0149972606964981
"1041",0.144604331218709
"1042",0.0516871976636744
"1043",0.0547486410413692
"1044",1.91486021385856e-05
"1045",0.000806516553869652
"1046",0.108505840770994
"1047",0.0301334263049086
"1048",0.00255515457225897
"1049",0
"1050",0.00138441465572581
"1051",0.128368349195896
"1052",0.0261801320154007
"1053",2.17581200390171e-07
"1054",0.393095296985652
"1055",0.00468965551244138
"1056",3.73340152126644e-08
"1057",0.0115038335323355
"1058",0.665785331609751
"1059",0.250609823287805
"1060",0.245358914012215
"1061",7.28836682241107e-05
"1062",0.0756726213857195
"1063",0.00605883758747094
"1064",0.107423950717157
"1065",0.00723403206676898
"1066",1.05504674996482e-08
"1067",0.122149413564252
"1068",0.043230888813946
"1069",1.18140225350283e-05
"1070",0.248697475191949
"1071",1.13796180362113e-05
"1072",2.08263259957597e-05
"1073",0.154768550725861
"1074",0.0122598032869808
"1075",0.267468541488775
"1076",0.157705577497818
"1077",0.0415500601416045
"1078",0.000956962847398435
"1079",0.13180009743721
"1080",0.00125908563077382
"1081",0.00506491172999557
"1082",0.0355496663699991
"1083",0.178095729068333
"1084",0.00372634209161582
"1085",0.0361183054593758
"1086",0.0352298798054389
"1087",2.52446933155515e-05
"1088",0.200711606388403
"1089",0.0767612900536911
"1090",3.64210688413857e-05
"1091",0.00287342123150569
"1092",0.0432749002124223
"1093",0.00441097140334468
"1094",0.061760285550824
"1095",1.55854221216556e-05
"1096",0.00170346294772228
"1097",0.000151574996207104
"1098",0.0394628527521806
"1099",0.0287507530710989
"1100",0.0443507156807118
"1101",0.0274539794014477
"1102",0.11722749652945
"1103",0.000797670593332467
"1104",0.0243235998409536
"1105",0.248826069017655
"1106",0.000618560015357761
"1107",0.00315135907031605
"1108",0.0701784826821414
"1109",0.0432537945873122
"1110",0.0160502948507
"1111",0.0392310559996607
"1112",0.331738518042463
"1113",0.212812643816452
"1114",0.0199168469897871
"1115",5.20340608592962e-05
"1116",0.0464048737158875
"1117",4.14907509554974e-05
"1118",0.273722791634068
"1119",0.644846433281717
"1120",0.0338156043152357
"1121",0.0230309199917912
"1122",0.0139021332628686
"1123",0.00985141116109933
"1124",0.0176610632834074
"1125",0.160731978060484
"1126",0.0243083704505402
"1127",2.06648971001755e-06
"1128",0
"1129",8.63057690869695e-08
"1130",0.00126120512885952
"1131",0.0213076255396738
"1132",0.263793740556154
"1133",0.00218192781962656
"1134",0.246688995366173
"1135",0.457359132042983
"1136",0.0293744141228672
"1137",0.000450862054010792
"1138",0
"1139",0.0820516503916322
"1140",1.07691299453538e-05
"1141",1.28210178559351e-05
"1142",0.181306786559424
"1143",0.126385476873594
"1144",0.0362760049960682
"1145",2.63835459035633e-06
"1146",0.00999343242385753
"1147",0.0205969588698746
"1148",0
"1149",1.33659749934623e-12
"1150",3.37110961368126e-09
"1151",0.000306471442203415
"1152",0.0403959916545096
"1153",6.48082441467857e-05
"1154",0.000236004155102165
"1155",0.00125837574647214
"1156",0.43444636932541
"1157",0.0463579298901561
"1158",0.0109839114561395
"1159",0.0225494900084251
"1160",0.28868600924035
"1161",0.275706277504552
"1162",0.199023840906025
"1163",0.043992033612862
"1164",7.70248064763113e-05
"1165",0.0407332030368543
"1166",0.699112551312921
"1167",1.44314431738124e-07
"1168",8.5950942150248e-06
"1169",0.367843645713951
"1170",0.304634077076062
"1171",0.0637366730856881
"1172",0.093037271435805
"1173",0.004756053488011
"1174",0.0570607793377633
"1175",4.65904254842719e-07
"1176",0.00322210934869149
"1177",0.0257290219992947
"1178",0.000240214355572421
"1179",0.223020667074292
"1180",4.72469891621419e-06
"1181",0.0185394631501371
"1182",0.471736381087039
"1183",0.000384612030989051
"1184",0.0056595676007859
"1185",0.062738674017184
"1186",0.0012471841089754
"1187",0.0628468307152342
"1188",4.40298860038268e-07
"1189",0.349953081463831
"1190",0.156453747010121
"1191",0.00172033136571559
"1192",2.47360863125934e-07
"1193",0.0806086938918001
"1194",0.129761057110749
"1195",0.00352417081243317
"1196",0.000208284509510825
"1197",3.29532459587556e-05
"1198",3.66193725831465e-06
"1199",0.0966006780659752
"1200",0.00117126921286204
"1201",0.00140469871494209
"1202",0.0075796599052721
"1203",0.0553541019930112
"1204",0.0715937201490195
"1205",0.00241740196022666
"1206",1.5558948707195e-07
"1207",5.26821823140233e-05
"1208",1.102558830679e-06
"1209",0.000705971062515576
"1210",1.25038313036896e-10
"1211",0.010943824859459
"1212",0.0783183427978935
"1213",0.000644378043922367
"1214",0.00558961266841784
"1215",0.354235805162506
"1216",0.103300159753212
"1217",2.36746745850835e-05
"1218",0.0064350148817951
"1219",0.00159795396982521
"1220",0.0279332465899893
"1221",1.52655665885959e-13
"1222",0.0017104845644148
"1223",0.139102799404152
"1224",2.33146835171283e-15
"1225",2.9143198726489e-06
"1226",1.88413393775733e-08
"1227",8.844036614164e-13
"1228",1.31905597555715e-12
"1229",0
"1230",0
"1231",2.77555756156289e-15
"1232",6.25281271204869e-10
"1233",0.00900510352403416
"1234",7.2400199422229e-05
"1235",0.00128210527011119
"1236",0.210288913389085
"1237",0.000682090899296606
"1238",0.000418142655710274
"1239",0.00861401089202751
"1240",1.14486518911772e-05
"1241",0
"1242",0
"1243",0.152448147550943
"1244",0.00552165770667778
