"","x"
"1",0.000233270292776644
"2",0.0182402356571449
"3",1.18186691100419e-07
"4",0.00886732142544699
"5",6.73535967665728e-07
"6",0.0172122482768948
"7",0.196184772786123
"8",0.00495902431657502
"9",0.602123388573742
"10",0.181343076990905
"11",0.830909037109895
"12",1.08478781513099e-11
"13",0.0692476220668353
"14",0.000204349895646661
"15",0.489823024856884
"16",0.0133620253715835
"17",0.0377776601386592
"18",0.140155424337551
"19",0
"20",0.611491336060626
"21",0.343138402809546
"22",0.38480740941804
"23",0.148605622758936
"24",0.116474330226474
"25",0.00787491700761611
"26",0.0775523456322037
"27",0.00178125905626181
"28",0.0785331948730791
"29",0.102011738707064
"30",0
"31",0
"32",0
"33",0
"34",0
"35",0
"36",0
"37",0
"38",0
"39",0
"40",0
"41",1.93511873192165e-13
"42",8.91237695166414e-06
"43",0
"44",0
"45",0
"46",0
"47",0.000617040814980374
"48",3.28670101457096e-06
"49",0.30635553369879
"50",0.499169054629218
"51",0.331439385908707
"52",0
"53",0.000913783649293953
"54",0.0106265323210046
"55",0.00281214192060497
"56",0
"57",4.01594175380993e-06
"58",0.0799795735869959
"59",0.145865489849196
"60",5.75095526755831e-14
"61",1.11022302462516e-15
"62",0.0113684511587899
"63",0.859978738763674
"64",0.818363678288423
"65",0.0306962934895911
"66",0.0999552143563623
"67",0.036320258875068
"68",0.00124781180534372
"69",0.750181644853208
"70",0.700996007619263
"71",0.191499311609393
"72",0.0822894334579253
"73",0.564129743833437
"74",0.0596137789067835
"75",0.0794248370973802
"76",0.542238299902822
"77",0.177784277292904
"78",0.00047713270810501
"79",0.137872181100886
"80",0.144416237951935
"81",0.0170172482215452
"82",0.163602581991997
"83",5.72686656032939e-05
"84",0
"85",0.598387140629408
"86",0.116438060347084
"87",0.414192991300601
"88",1.00110389400498e-06
"89",0.115876865367658
"90",0.00631167951986211
"91",0.0033180629269387
"92",0.406873775671575
"93",1.10256901730832e-06
"94",0.0856683728961882
"95",2.10992095550644e-06
"96",0
"97",0.0668365574540888
"98",0.639307611687427
"99",0.00184785230161433
"100",0.162472334706693
"101",0.0134156209509306
"102",0.0179903865337153
"103",0.0569586398464773
"104",3.08396261999855e-05
"105",0.912141700028598
"106",0.01004535399242
"107",0.000694207276395131
"108",0.147366615340205
"109",0.011227042905082
"110",0
"111",0.444796472730556
"112",0.095556727911527
"113",0.0928591016017218
"114",0.05954411657654
"115",0.00136439672123845
"116",0.330552922715847
"117",0.0327744812709042
"118",0.0606611001321347
"119",0
"120",0.0185199057728129
"121",0.0100073774791288
"122",0.0151188943969078
"123",0.259953310841582
"124",0.592349076007047
"125",0.434695881009661
"126",0.125653343160752
"127",0.0141134647893123
"128",1.15027945291057e-06
"129",1.77600495654406e-06
"130",0.000967612032572118
"131",0.317201049552553
"132",0
"133",0.00104944857987488
"134",3.08859723352484e-08
"135",1.22124532708767e-15
"136",0.0126655282284346
"137",0
"138",0
"139",0.0970528374098774
"140",0
"141",0
"142",0
"143",0.000704280122741707
"144",0.179699300747425
"145",9.19901561911018e-05
"146",0.220284129240885
"147",0.226773958928566
"148",1.60247592972951e-10
"149",0.0325823974551422
"150",0.130368857868795
"151",0
"152",0.485477524603287
"153",0.64258081094149
"154",0.0344250300924311
"155",0.006012633836602
"156",3.66373598126302e-15
"157",0
"158",0.248526059042729
"159",0.0460968474696544
"160",0.0317225766849017
"161",7.05539293655022e-10
"162",0
"163",2.08538890333898e-06
"164",2.74225087082414e-14
"165",0.00202776482781697
"166",0
"167",0.00033532809696879
"168",0.20340488140755
"169",0.655782012665128
"170",0.0172633619750263
"171",0.035859782223441
"172",0.0579278210485477
"173",4.77395900588817e-15
"174",1.4459382802201e-08
"175",1.85993653811778e-08
"176",1.37261679800105e-09
"177",0
"178",0
"179",0
"180",0
"181",0.206435186937571
"182",2.29581424990855e-05
"183",0.000151579291882697
"184",1.5887291482386e-12
"185",0
"186",1.11022302462516e-16
"187",0
"188",0.00134827587585995
"189",0.0193308711764849
"190",0
"191",0
"192",2.1976730435469e-09
"193",0
"194",0
"195",0
"196",0
"197",0
"198",3.64436600897022e-08
"199",1.74364966909479e-11
"200",0
"201",0
"202",0
"203",0
"204",0
"205",5.91360612700598e-08
"206",1.21359395277576e-06
"207",1.40277523930088e-07
"208",1.68925762267236e-10
"209",6.51764044090619e-06
"210",0
"211",0
"212",0.00163278694158386
"213",0.169993221593662
"214",0.0589839064602993
"215",0
"216",0
"217",0
"218",0
"219",0.0192345213394701
"220",3.7506434402701e-08
"221",0.114426352039582
"222",0.00804048488992115
"223",1.32116539930394e-14
"224",4.69956185409348e-05
"225",1.25278134384121e-05
"226",1.75313960321111e-05
"227",0
"228",9.60588466604184e-05
"229",5.73763259126281e-13
"230",0
"231",0
"232",1.20923200848111e-05
"233",0.0203430649581973
"234",0.000357249592613629
"235",0.797986490424423
"236",0.000142094553262861
"237",0.00122117248217957
"238",0
"239",0
"240",0
"241",0
"242",0
"243",4.22131284705252e-07
"244",5.01361039628723e-06
"245",0.000170028462772254
"246",0.0536828053986703
"247",0.276591327509541
"248",0.182653997035003
"249",1.39631674070939e-05
"250",0.306739300121552
"251",0.000915686780912583
"252",0.0134046460241439
"253",0.533442501497318
"254",1.30675274525593e-05
"255",3.63838092987123e-09
"256",7.80081554907497e-11
"257",1.57670543288191e-11
"258",0
"259",5.42668959768733e-08
"260",0.0666646577257113
"261",0
"262",0
"263",0
"264",0
"265",0
"266",1.86319316308747e-07
"267",0
"268",0.000373172780770648
"269",0.201701631961014
"270",0.0702208760782035
"271",0
"272",0.713291949322488
"273",0.482059897915003
"274",0.0849390490789643
"275",0
"276",0.0342125866449533
"277",0
"278",0.0362903746753775
"279",0.450801653216083
"280",0.00773668082730583
"281",4.54526971616076e-10
"282",0
"283",8.7725451472731e-05
"284",0.745841148719132
"285",0.0961910822900534
"286",0.0434730164113607
"287",0.222233384409649
"288",0.00787813631022805
"289",0.0373273627425689
"290",0.000602149803541896
"291",2.44757547562813e-11
"292",0.0237443505994991
"293",0.128319137256362
"294",0.00592387092939128
"295",0.0605789464603107
"296",0.120272544765909
"297",0.905383691685629
"298",0
"299",0
"300",0.000322270888562071
"301",5.27655696913598e-12
"302",5.72981218027735e-10
"303",0.00954194424240562
"304",0
"305",3.63630237032453e-11
"306",0.00784863794245749
"307",0.000585225076256468
"308",7.39002710914427e-07
"309",7.14598085260754e-07
"310",0.0966174100572261
"311",0.494985192216866
"312",0.01665174240512
"313",0.110269227108563
"314",0.0440015243526732
"315",0.00151111343920796
"316",0.146466722262943
"317",0.0723713075461873
"318",1.79500858621395e-12
"319",0.0371564340436161
"320",0.0701686719485539
"321",1.04485644482066e-05
"322",0.00187731705823568
"323",0.796925786885627
"324",0.00939628029267925
"325",0.0312368442562057
"326",0.266768371961252
"327",0.0205955522623248
"328",0
"329",0.00823265959691089
"330",0.581255620594238
"331",0.053538152601078
"332",0.397907440289818
"333",0.00669773667098283
"334",0
"335",0
"336",0.00198578275144479
"337",0
"338",2.99760216648792e-15
"339",0.649850549591357
"340",0.268298941187787
"341",6.33000249852245e-05
"342",0
"343",0.000337055175833822
"344",0
"345",0.0155491995339262
"346",0.00115217579700411
"347",0.0241026686996851
"348",2.22044604925031e-15
"349",0
"350",0
"351",6.59656379298212e-07
"352",0.172994537539554
"353",3.20963255973084e-11
"354",7.72480170718737e-06
"355",1.54186663436917e-11
"356",1.50990331349021e-14
"357",3.0874192091801e-12
"358",0.0310343973107037
"359",0
"360",0
"361",1.38765430302001e-06
"362",7.82853337710776e-10
"363",0
"364",0
"365",0
"366",0
"367",9.74716519719365e-08
"368",2.00652827686554e-11
"369",0
"370",1.19015908239817e-13
"371",3.73364239525387e-09
"372",0.0101485500121691
"373",0.0139841491396967
"374",1.71578721230858e-08
"375",0.00134938250246697
"376",0.493302321492702
"377",0.354654025690789
"378",2.24983118468636e-07
"379",0.0906534332399854
"380",0.000160389312156672
"381",0
"382",0
"383",0
"384",0
"385",0.707061819401883
"386",0.841839734487857
"387",0.134248210046623
"388",0.0148945042518244
"389",2.8094408571766e-06
"390",0.00799507675060473
"391",0.000117940021218121
"392",0.125561804475234
"393",0
"394",0.0229976198650633
"395",0.000500132247277185
"396",0.335259107361499
"397",0.00744351230750928
"398",0.218632460860924
"399",2.1396393934392e-07
"400",7.46127846817934e-06
"401",0.00838123588776685
"402",0
"403",0.0647331573917582
"404",0
"405",1.58338542277647e-09
"406",0
"407",0
"408",0
"409",3.16351360662992e-08
"410",2.47014630971876e-10
"411",5.69587739850386e-05
"412",2.33165486918097e-10
"413",1.12091800494873e-05
"414",7.59225075297465e-06
"415",0.0115845934665025
"416",7.69159814451026e-06
"417",6.66133814775094e-16
"418",1.6913965783516e-09
"419",1.72361460659687e-08
"420",0
"421",1.52436951950108e-11
"422",0.000520862373365905
"423",4.69002614522651e-12
"424",3.3138194199811e-07
"425",2.65070112526189e-08
"426",0.000822444048800719
"427",0.115715247152871
"428",0.0101397553818633
"429",1.51888698407543e-05
"430",0
"431",2.55595544729204e-12
"432",7.708016319663e-07
"433",0
"434",5.5890589187424e-05
"435",3.55879218494337e-06
"436",1.00055519425268e-11
"437",3.30323546293698e-11
"438",0
"439",5.32907051820075e-15
"440",0
"441",1.41020528587887e-12
"442",4.43826198015529e-10
"443",7.96929189306184e-12
"444",3.50708351248841e-12
"445",0.00859840708845439
"446",1.60982338570648e-14
"447",0
"448",1.31228361510694e-13
"449",1.73905334577285e-12
"450",0
"451",2.76833178602942e-09
"452",0
"453",0
"454",1.1595505917672e-05
"455",0
"456",9.05017697283572e-06
"457",5.1860273853066e-09
"458",1.26930883499465e-05
"459",0.000123983641040382
"460",0
"461",8.65973959207622e-15
"462",4.66293670342566e-15
"463",4.07076289132835e-06
"464",2.00839345154691e-13
"465",5.40614644162218e-08
"466",4.46475071358421e-08
"467",4.20347876595173e-06
"468",5.02668315421895e-05
"469",3.81056497467114e-09
"470",4.19731665646239e-07
"471",2.22044604925031e-15
"472",0.0464726706500074
"473",2.52609044792962e-12
"474",1.91846538655227e-11
"475",1.32385036266669e-09
"476",4.68226811090044e-06
"477",0
"478",0
"479",1.12189054490841e-07
"480",1.22124532708767e-15
"481",4.90905094352456e-10
"482",0.000769002270371355
"483",8.09152744807307e-12
"484",0
"485",3.24015238972741e-07
"486",3.33066907387547e-16
"487",2.469300492558e-05
"488",0
"489",1.22342625807903e-07
"490",4.18221013376296e-13
"491",3.62381566965109e-06
"492",2.21860146920605e-08
"493",0
"494",0
"495",2.22044604925031e-16
"496",4.67403893367191e-14
"497",5.99520433297585e-15
"498",0.000949858293614825
"499",1.56110894211636e-08
"500",0.000185037556572176
"501",5.56632455239736e-07
"502",1.00081287668363e-06
"503",1.8617424157874e-08
"504",0.000679819852594132
"505",0
"506",6.45632056706091e-08
"507",1.79798065325087e-10
"508",6.19301288029561e-09
"509",0.000474723534914179
"510",4.40310210569894e-06
"511",0
"512",0.0994434151774849
"513",1.17500309819718e-05
"514",2.54622478973454e-05
"515",6.15125973091324e-06
"516",4.46349999838613e-06
"517",0.000650516536057189
"518",0.00280853638051726
"519",5.4643180952052e-05
"520",9.48112606449225e-05
"521",2.36958364041584e-09
"522",7.85172649120369e-09
"523",5.53431862559961e-08
"524",1.0656764359851e-10
"525",4.35676272836361e-10
"526",0.00151506311764271
"527",1.63858515644932e-08
"528",2.4840794976555e-09
"529",0.001082066433304
"530",1.07024111795084e-09
"531",0
"532",1.24779454591106e-06
"533",0.0007654793132712
"534",8.81056971824279e-09
"535",4.80016026926933e-12
"536",1.04694031222152e-13
"537",1.52590882795955e-06
"538",1.44959599879257e-11
"539",0.000628988160262245
"540",2.13655227376819e-05
"541",0.000924211811945574
"542",0.318121159077635
"543",0.0394086789239783
"544",3.05911139977244e-05
"545",0
"546",1.45359070335971e-08
"547",0.000764970727226033
"548",8.39175226363675e-06
"549",2.10194893679461e-06
"550",0.0243479067004572
"551",0.116534120036582
"552",0.0102128672480882
"553",0.16292716099473
"554",6.00633324177036e-05
"555",0.00964194258987383
"556",0
"557",1.57197421746247e-09
"558",1.02766809807475e-05
"559",0.000339378221552722
"560",1.56522828564931e-05
"561",0.00692061906747921
"562",0.00730769661765263
"563",0.188791730962716
"564",0
"565",3.79581126641604e-07
"566",0
"567",1.29139066107342e-09
"568",1.02736374962831e-10
"569",0.014833653460318
"570",2.21976497383203e-06
"571",0.000929166460418962
"572",0.000310865987879883
"573",0.305695772157434
"574",0.000470822528251369
"575",0.000120825620299359
"576",0.000351317589416533
"577",0
"578",3.18478576843972e-12
"579",8.93513092847797e-07
"580",0.00017194658922437
"581",0.000585168631682231
"582",0.00402117778684252
"583",0.00152049812379518
"584",0.0541972848298456
"585",0.0636882692728021
"586",0.759159825640181
"587",0.00188530323034053
"588",0
"589",6.63374730520694e-05
"590",6.57694972661105e-05
"591",0
"592",4.35703362278161e-10
"593",0.0719819562344046
"594",9.92633553131839e-08
"595",0.0451662541601457
"596",0.000321965052261119
"597",0.558599233023981
"598",0.0153823714627664
"599",0
"600",2.85294262658553e-08
"601",0.00157550641003645
"602",2.62634358705327e-11
"603",5.79343673035027e-09
"604",3.67006425250338e-12
"605",2.28845686844892e-09
"606",0.575908725842845
"607",0.0505440187836304
"608",0.000924993031603538
"609",5.19286827161958e-05
"610",3.83589654961991e-06
"611",1.12317470801759e-06
"612",0.0292613775911312
"613",0
"614",0
"615",1.671789040536e-09
"616",0
"617",2.21077421949101e-05
"618",4.03861443873943e-05
"619",6.47911557738468e-09
"620",2.53625289658999e-07
"621",0
"622",0.000288139343347149
"623",0.00525943093961823
"624",0.005252752318887
"625",0
"626",0
"627",0
"628",5.0542999430192e-07
"629",0.235605493005004
"630",1.97365062071242e-08
"631",0
"632",6.27942142727989e-13
"633",0
"634",0
"635",2.66564192941132e-09
"636",1.27077419698196e-08
"637",0
"638",0
"639",0.118257089255274
"640",0.000319137663228108
"641",0.0016060204672681
"642",0.231434637931208
"643",2.92201907139411e-05
"644",5.40689715222697e-12
"645",2.7761126730752e-12
"646",4.06209346492936e-07
"647",9.8104932321208e-05
"648",0.79084176012741
"649",0
"650",0
"651",1.1132200605779e-08
"652",0.00531635445624601
"653",4.4246510665813e-05
"654",0
"655",1.22124532708767e-15
"656",0
"657",8.21565038222616e-15
"658",1.32208276382162e-06
"659",0
"660",0
"661",0
"662",0
"663",2.14828467459682e-07
"664",0
"665",0
"666",0
"667",0
"668",0
"669",0.000918814629571774
"670",0.00670015664722434
"671",0.00636530862089812
"672",0
"673",0
"674",3.54348822004802e-05
"675",3.33066907387547e-16
"676",0
"677",4.82552120484314e-09
"678",0
"679",0.415408114616427
"680",0.00322483637453452
"681",0
"682",0
"683",1.65423230669148e-14
"684",0
"685",1.30409583132263e-09
"686",0
"687",0.000290960667367113
"688",0
"689",0.00426785178833511
"690",0.0607808687278489
"691",0.148002121025399
"692",0.194865284315481
"693",0.0179436899897071
"694",0.43613071605842
"695",0.27606679336188
"696",0.0736754957238965
"697",0.00229537930515733
"698",0.00687132213005182
"699",1.26268115963057e-08
"700",0
"701",0.000354222610765675
"702",1.55902987210021e-05
"703",0
"704",0.0129522026295301
"705",0.0190984192966598
"706",0.000243470665980849
"707",0.0281178430122978
"708",0
"709",7.25523299216491e-08
"710",0
"711",0.631032459652241
"712",0
"713",1.16068230441302e-05
"714",0
"715",0.136241572606015
"716",6.57792337266372e-07
"717",1.15614544452525e-05
"718",0.101765165169325
"719",0
"720",0.00129955009875748
"721",4.68286502808279e-06
"722",3.04807459661216e-06
"723",0.33526089257358
"724",2.42900921271216e-05
"725",0.0020018693660766
"726",0.000538307610677635
"727",0.00168926304985351
"728",9.18730336252338e-09
"729",0.219973858643031
"730",0.0963800639484933
"731",0.00101429226738392
"732",0.0117195592025248
"733",0.000126840935657069
"734",0.00300070790566942
"735",1.66001209678246e-06
"736",7.18427303203484e-08
"737",0.00127971248073333
"738",2.00641122294343e-06
"739",0.753645709401991
"740",1.62836609450823e-05
"741",0.00439736115277067
"742",0.0082128119888214
"743",0.000619152047484306
"744",0.0965185838660406
"745",0.00159036853877037
"746",0.000220278079109293
"747",0.0335652063997027
"748",0.000224640005233145
"749",0.385461103397637
"750",0.00120451882758865
"751",0.0469653623388832
"752",0
"753",0
"754",0.000263595473560363
"755",0.000495446319889736
"756",0.0769188856263944
"757",0.00511062371064264
"758",9.32863584601762e-07
"759",0.000573163327164172
"760",4.03443534136017e-09
"761",0.000495993784590643
"762",0.000151093715418327
"763",0.017191850927426
"764",4.20806911538563e-09
"765",6.90814169472809e-05
"766",6.63938689049459e-06
"767",6.7168492989822e-14
"768",0
"769",0.0338628236934877
"770",3.68973349318402e-07
"771",0.0003107962485841
"772",0.00385446054587057
"773",0.000656613234089498
"774",1.51460895980726e-06
"775",0.0368206399453384
"776",1.76041200413701e-05
"777",0.00690459103506802
"778",1.80558317963708e-07
"779",0.000738902138176845
"780",0
"781",0
"782",6.60364332016883e-05
"783",0.108998302725037
"784",4.56501503265372e-12
"785",0.0189591147360564
"786",0
"787",0
"788",2.74973683515034e-05
"789",5.76685943443067e-09
"790",0.0027924271353289
"791",0.00672980031488035
"792",0.00113006793747605
"793",0.045400547433488
"794",0.00710887644059321
"795",3.75675816588483e-06
"796",0.0422347503074548
"797",0.300887908885053
"798",0.0097106363514492
"799",0.00076676936304565
"800",7.47271073960887e-05
"801",0.0251296567102184
"802",0.00204314101278613
"803",7.21919389456982e-06
"804",0.00506293749344389
"805",0.00122622609190093
"806",0.0096055654601187
"807",0.0225651401717106
"808",0.0071338501080398
"809",6.87576545432833e-06
"810",1.34531314123221e-05
"811",0.0001821578280915
"812",4.59490717620303e-05
"813",0.00143127898739048
"814",0.00139471182314976
"815",0.128048393041185
"816",0.101640120647735
"817",0.0771180244211768
"818",0.0119564284664492
"819",4.31626585869482e-05
"820",0
"821",0.141854660090724
"822",0
"823",0
"824",6.04207127663514e-08
"825",0
"826",7.61690425165051e-05
"827",0.847376234553364
"828",0.157435001241999
"829",0.308849447753875
"830",0.073711897170044
"831",4.53137527500758e-12
"832",0
"833",3.99979699726716e-05
"834",0.0986861675753956
"835",2.27378787545085e-05
"836",0.236394449700612
"837",0.000465731617080856
"838",0.000545970182552535
"839",9.46824249004052e-08
"840",0
"841",0.048872578341606
"842",0.138457454838515
"843",0.0458379378633423
"844",6.06671677849668e-06
"845",0.35854869937645
"846",0
"847",0
"848",0.0542899598701366
"849",1.23436261212362e-10
"850",0.0296871704729094
"851",0.000317882577208328
"852",4.04916731012728e-05
"853",0.0514522795199016
"854",0.000813620264957793
"855",0
"856",0.00113450139560323
"857",0.000799603060602005
"858",0.00345090554848637
"859",0.114008696747345
"860",0.143208072569231
"861",0.0726588028514449
"862",0.534410625890594
"863",0.0446476921026713
"864",0.00913886547663123
"865",1.4951373472627e-12
"866",0.021431619469689
"867",0.0231275181040541
"868",0.0803128238625245
"869",0.00127915028273506
"870",0.27139899384146
"871",0
"872",0.00791744193926736
"873",1.66848911087314e-06
"874",0.446005344949351
"875",0.0033893682488102
"876",0.448101494289497
"877",0
"878",0.000506276906312997
"879",0
"880",0
"881",1.78268511064061e-12
"882",0.00456759858984579
"883",0.0126588362225821
"884",0.15850990215019
"885",0
"886",0.0130068786724479
"887",0.0781806675483655
"888",0.0315894841239429
"889",2.73302889430838e-07
"890",0.000514220068103755
"891",0.0416304873203382
"892",4.74124268068365e-07
"893",0
"894",1.60333177401384e-07
"895",0.0405699717529144
"896",0.00549118167894924
"897",0.00112990654218581
"898",0.00312721531015236
"899",0.00144737317330956
"900",3.28969667975354e-05
"901",0
"902",1.39840769630695e-07
"903",0.00117156319752387
"904",0.00302410996541658
"905",0
"906",8.91416969239778e-06
"907",3.40558399480884e-07
"908",0.00138165277057101
"909",0.00731157882331734
"910",0.00475651157736245
"911",0.000530456208106211
"912",0.00128146241339044
"913",0
"914",0.00354163450660372
"915",0.00028758021298525
"916",8.88751302484669e-05
"917",0.0680282453667604
"918",0
"919",0
"920",0
"921",0
"922",1.1216356399224e-08
"923",0.00507273681214915
"924",0.00177161339539522
"925",2.06045207562511e-08
"926",0.514275256264235
"927",0.0760200541089157
"928",3.50834781138731e-05
"929",0
"930",0.0700897465232545
"931",0.347732104903068
"932",1.96116130506407e-05
"933",0.0105655106981145
"934",0.00138538839166236
"935",0
"936",4.72220411202873e-05
"937",1.10693647270566e-06
"938",0.0158017776476198
"939",0.00021319865578473
"940",0.0050528602750346
"941",0.00100042632392239
"942",0.018890268377952
"943",5.88758473085704e-08
"944",2.38935212948377e-07
"945",0.054788664473335
"946",0.0267209249298715
"947",0.00954773951853727
"948",2.89754058080405e-07
"949",0.000320605834456256
"950",0.0187840386632143
"951",0.00013481952461325
"952",0.0623496239722315
"953",0.00975205067991469
"954",0.590010088721369
"955",0.0286845002252916
"956",0.0806968766124383
"957",0.0578522764780783
"958",9.43649720119843e-06
"959",0.455534659158885
"960",2.01777483610499e-11
"961",0.000400293214459224
"962",0
"963",0.141636941873079
"964",0.00723495974347954
"965",0.00277297045795399
"966",0.0121953591561076
"967",0.0175572316945799
"968",0
"969",0.00530063170036477
"970",0.313744619443669
"971",9.30197895749885e-05
"972",3.11098024896594e-07
"973",0.0002043072810749
"974",0
"975",0.0115694206812071
"976",0
"977",5.41285365428523e-05
"978",1.76373652349682e-08
"979",0
"980",0
"981",0
"982",0
"983",0
"984",0
"985",0
"986",0
"987",0
"988",0
"989",0.619192433985608
"990",1.79293169200179e-09
"991",0.122424143869226
"992",3.94786923835211e-05
"993",0
"994",0
"995",8.13122829623758e-07
"996",0
"997",3.85525912971474e-07
"998",0.344552400134734
"999",0
"1000",0.000836184374964022
"1001",0.526475058420213
"1002",7.7715611723761e-16
"1003",3.5358382888262e-11
"1004",0
"1005",0.0986843604072403
"1006",0.0202369567023271
"1007",0.138304086154535
"1008",0.00817693545200582
"1009",2.60948494202884e-05
"1010",0
"1011",0
"1012",0
"1013",0.0444036266355307
"1014",0.0510377570066114
"1015",0
"1016",0
"1017",0
"1018",0
"1019",0
"1020",4.53912054160233e-05
"1021",8.71805783120294e-09
"1022",2.00062189037453e-13
"1023",2.03673053200681e-07
"1024",0
"1025",0.0212194377708367
"1026",5.54394603557995e-08
"1027",0.00161423191632992
"1028",0.000154454901481471
"1029",0
"1030",0
"1031",0.457459601977893
"1032",7.79913191438775e-05
"1033",0.57803150123293
"1034",0.000157053947312469
"1035",1.88737914186277e-15
"1036",0
"1037",0.156044600102948
"1038",0.215624438962642
"1039",0.126249639340765
"1040",0.00144144540013924
"1041",0
"1042",2.6608376281656e-05
"1043",2.22807883254461e-10
"1044",0
"1045",0.00023965577927676
"1046",0
"1047",0
"1048",0
"1049",0.00031433456297314
"1050",0.309852221850374
"1051",0.0199433886817127
"1052",0
"1053",0
"1054",0
"1055",0.004330488898865
"1056",0.0558255579927404
"1057",7.6016992700545e-10
"1058",0.0674934420346799
"1059",0.707098690597117
"1060",0
"1061",0
"1062",0.227871386571915
"1063",0.0497079213623159
"1064",0
"1065",0.656360009680869
"1066",0.545485892567753
"1067",0.0110577733623605
"1068",0
"1069",0
"1070",0
"1071",0.00473922992699871
"1072",0
"1073",0
"1074",0.855466790101222
"1075",0
"1076",9.03948027541901e-11
"1077",0.199619730554491
"1078",0.675729233975957
"1079",0.909188254177204
"1080",0
"1081",0.00931836485720561
"1082",0.553084916645552
"1083",0.688720065753594
"1084",0.153318239521714
"1085",0.0959124691901477
"1086",0
"1087",0.50612990814064
"1088",0.0335618353584285
"1089",0.107845741585326
"1090",0.422302843815609
"1091",0.00155633936061816
"1092",0.00150173954597665
"1093",0.696383668591389
"1094",0.352051228654047
"1095",0.114680721189892
"1096",0.0243864949898287
"1097",0.0250829057226259
"1098",0.636286592813045
"1099",0.108756357269004
"1100",0.0226837062887473
"1101",0.279115736076338
"1102",0.155628428262004
"1103",0.0071709527796544
"1104",0.17587897199998
"1105",0.497905620350867
"1106",0.0325634217389168
"1107",0.258213197193921
"1108",0
"1109",1.31618216325791e-09
"1110",6.62803306629156e-05
"1111",0
"1112",0.0597125997057769
"1113",1.58206781009085e-13
"1114",0
"1115",0
"1116",0.00245333909596557
"1117",0.0926378297138154
"1118",0.00876437675830599
"1119",0.00098663421802403
"1120",0.0591219853621149
"1121",0.0396537224852284
"1122",0.0535612670961342
"1123",0
"1124",0.162869940791945
"1125",0.000710331131626996
"1126",0
"1127",0
"1128",0
"1129",5.4092019752261e-10
"1130",0
"1131",1.01024250032111e-05
"1132",0.013184489987798
"1133",9.88098491916389e-15
"1134",0
"1135",0
"1136",1.11022302462516e-16
"1137",0
"1138",0.0137150762964156
"1139",5.83573778190072e-09
"1140",6.2619021079513e-11
"1141",0
"1142",0.2651595139471
"1143",0
"1144",0
"1145",1.31858100935744e-05
"1146",0
"1147",6.84751144675033e-11
"1148",0
"1149",0
"1150",0.171206009995378
"1151",0.535109925250673
"1152",0
"1153",2.21739388961417e-07
"1154",0.00101351193276011
"1155",1.79134485023269e-12
"1156",0.459179354065003
"1157",0.0232687797618907
"1158",7.02292601850729e-09
"1159",0.00396966606874194
"1160",3.66227199277702e-05
"1161",0.0913233728876504
"1162",0
"1163",2.08040615801153e-06
"1164",0.439296387761486
"1165",0
"1166",0.776640636666441
"1167",0
"1168",5.55111512312578e-16
"1169",0
"1170",0
"1171",0.0707465108852707
"1172",2.11995692450673e-05
"1173",0.058962300601639
"1174",2.37675469973997e-05
"1175",0.358894519237075
"1176",0.104469684022
"1177",0
"1178",0.285290809597429
"1179",0
"1180",0.0130183367628031
"1181",0.217445636350817
"1182",0.0223913265543234
"1183",2.77555756156289e-15
"1184",0.00634959739049457
"1185",1.7483951075814e-07
"1186",8.18686414444381e-05
"1187",0.430780092403663
"1188",7.08529330337715e-05
"1189",2.06834549487667e-13
"1190",0.00127708714235919
"1191",0.681570179077922
"1192",0.651899310859827
"1193",0.000495827854083752
"1194",3.09903103179465e-10
"1195",0.0462610141166875
"1196",0.160158283142282
"1197",0.316385644381103
"1198",0
"1199",0
"1200",0
"1201",2.15085171895169e-10
"1202",0
"1203",0.220128491043349
"1204",0.564428642991964
"1205",0.000325280715901322
"1206",0.026503904447468
"1207",0.427096083385347
"1208",0.111409650100927
"1209",0
"1210",0
"1211",0
"1212",0
"1213",0.364999042249262
"1214",0.605288227764196
"1215",0.445633354888521
"1216",0.0700981920708673
"1217",0
"1218",0.0777316695679449
"1219",0.0102976165329496
"1220",0.0358932584036454
"1221",0.00323997499960837
"1222",0
"1223",0.0452782507143308
"1224",0.612790163840469
"1225",0.23417392192862
"1226",0
"1227",0
"1228",0.0393495565708869
"1229",1.34906727633499e-06
"1230",1.01330055457538e-12
"1231",0
"1232",9.86100090472064e-13
"1233",0
"1234",0
"1235",0.182861436737531
"1236",0
"1237",0
"1238",0.00763379100660022
"1239",0
"1240",0.000386909631985954
"1241",0.0107935280836041
"1242",0.0562606424720393
"1243",5.49398818661118e-08
"1244",0
"1245",0.471046380621252
"1246",0
"1247",0
"1248",0.11829179699152
"1249",0
"1250",0
"1251",0
"1252",0
"1253",8.56920830072383e-07
"1254",0
"1255",0
"1256",0
"1257",0.001112873113429
"1258",0
"1259",0
"1260",0.00457388722001972
"1261",0
"1262",0
"1263",0
"1264",1.05588037868642e-07
"1265",0
"1266",0
"1267",0
"1268",0
"1269",0
"1270",0
"1271",4.67654877477353e-05
"1272",0.00100958419843078
"1273",3.27887165785246e-06
"1274",3.44169137633799e-15
"1275",0.611873384194632
"1276",0
"1277",0.00120457135862351
"1278",0
"1279",0
"1280",0.353109799132047
"1281",0.000959218832301767
"1282",0
"1283",0.0287651855560193
"1284",0.173710728228806
"1285",0.0871389081676365
"1286",0.356301734640403
"1287",0.341836889230998
"1288",0.0925550438575299
"1289",0.087998789848319
"1290",0.387945480881781
"1291",0
"1292",0
"1293",0
"1294",0.00310765606209007
"1295",0
"1296",0.00461171275881345
"1297",3.7257291131132e-06
"1298",8.22101660618024e-05
"1299",0
"1300",0.734634949902425
"1301",1.54487533876591e-12
"1302",0
"1303",0
"1304",0.365688724853492
"1305",0
"1306",0.0334183613135751
"1307",0
"1308",0
"1309",0.851451711890164
"1310",1.03583808197527e-13
"1311",0
"1312",0.00675804075405595
"1313",0
"1314",0.0172202466182743
"1315",0.198482433864844
"1316",0
"1317",0
"1318",0.00732072005686812
"1319",0.00187605645053213
"1320",2.79763636031882e-05
"1321",0.00171913454115236
"1322",0
"1323",0.0592262526249661
"1324",0
"1325",0.874435483000673
"1326",0
"1327",0
"1328",0
"1329",0.000614923818885837
"1330",0
"1331",0
"1332",2.19559383662915e-06
"1333",0
"1334",0
"1335",0.114949999848681
"1336",0
"1337",0
"1338",0
"1339",0
"1340",0
"1341",0
"1342",0
"1343",0
"1344",0
"1345",0
"1346",0
"1347",0
"1348",0
"1349",0
"1350",0.00252624406899349
"1351",3.63868934982747e-11
"1352",0
"1353",0.634301879739467
"1354",0
"1355",0
"1356",0.000116717002158651
"1357",1.43429066808975e-05
"1358",1.36224365121507e-13
"1359",0.0474590195376267
"1360",1.51673156056908e-06
"1361",1.84840944772446e-08
"1362",0.666035128673844
"1363",0
"1364",0
"1365",0
"1366",0
"1367",0.00151987570947676
"1368",5.19124410125471e-10
"1369",0
"1370",0
"1371",1.6764595078822e-07
"1372",0
"1373",0
"1374",0.000496821203006093
"1375",0
"1376",0
"1377",0
"1378",0
"1379",0.280124426849542
"1380",0.0474063142248597
"1381",0.00299186261916307
"1382",9.62252166836208e-09
"1383",1.23050768092714e-05
"1384",0.00024915547336346
"1385",0
"1386",1.3662804221326e-10
"1387",0.00647389399055154
"1388",0
"1389",3.3939517862791e-12
"1390",0
"1391",0
"1392",0
"1393",0
"1394",0.729717845963364
"1395",0.173406026325749
"1396",0.181271496962378
"1397",0.00291482945715227
"1398",0.0010515618276683
"1399",0.00650846671930716
"1400",0.0479874778729256
"1401",0.000149644277397609
"1402",0.0282737192075811
"1403",0.518313533232669
"1404",0.904335567684464
"1405",0
"1406",0.00128290034348333
"1407",0
"1408",0.091041757126375
"1409",0.261494012756903
"1410",0
"1411",0
"1412",0.624548309647295
"1413",0
"1414",0.00526508552816907
"1415",0.000922069500243761
"1416",0.185233385483666
"1417",0.0114754673717787
"1418",0
"1419",0
"1420",0.00241024866564299
"1421",0
"1422",0
"1423",3.01195735019633e-11
"1424",0
"1425",0
"1426",0
"1427",0
"1428",0
"1429",0
"1430",0
"1431",0
"1432",0
"1433",0
"1434",0.119065600350866
"1435",0
"1436",0
"1437",0
"1438",0
"1439",0
"1440",0
"1441",0
"1442",2.76967337953238e-12
"1443",0
"1444",0
"1445",0
"1446",0
"1447",0
"1448",2.92210700081341e-13
"1449",0
"1450",0
"1451",0
"1452",0
"1453",0
"1454",0
"1455",0
"1456",0
"1457",0
"1458",8.48057180036221e-10
"1459",0
"1460",0
"1461",2.10742105268835e-05
"1462",8.88178419700125e-16
"1463",0
"1464",5.08590614489712e-06
"1465",0
"1466",5.49025158669281e-10
"1467",0
"1468",0
"1469",0
"1470",0
"1471",0
"1472",0
"1473",2.49035526699304e-05
"1474",0
"1475",0
"1476",0
"1477",0
"1478",0
"1479",1.05115616211293e-08
"1480",3.12614960850111e-05
"1481",0
"1482",0
"1483",0
"1484",0.00847583216929437
"1485",2.47779574635842e-12
"1486",2.96538910982136e-07
"1487",2.30122957867174e-06
"1488",0.015589034836839
"1489",9.40248368053176e-09
"1490",0.0422974637226613
"1491",0
"1492",0
"1493",0
"1494",2.58293095570794e-05
"1495",0.0404293450766724
"1496",0
"1497",1.82645569557494e-07
"1498",0.0652047642262484
"1499",9.9590600532995e-07
"1500",0
"1501",0.00367010053920003
"1502",0
"1503",1.55431223447522e-14
"1504",0
"1505",0
"1506",0
"1507",0
"1508",0
"1509",0
"1510",0
"1511",0.00401575605555438
"1512",0
"1513",0
"1514",0
"1515",0
"1516",0
"1517",0
"1518",0
"1519",0
"1520",0
"1521",0
"1522",0
"1523",0
"1524",0
"1525",0
"1526",0
"1527",0
"1528",0
"1529",0
"1530",0
"1531",0
"1532",0
"1533",0
"1534",0.0088794899912108
"1535",8.11870309203044e-07
"1536",0
"1537",0
"1538",0
"1539",0
"1540",0
"1541",1.7812418207086e-12
"1542",0
"1543",0
"1544",0
"1545",0
"1546",0
"1547",3.40838468559923e-14
"1548",0
"1549",0
"1550",3.4910963009338e-12
"1551",0
"1552",8.93667131185438e-07
"1553",0
"1554",0
"1555",0.00647569166543149
"1556",1.86876847330097e-10
"1557",0
"1558",0
"1559",0
"1560",0
"1561",5.58596473521078e-08
"1562",1.34479962721201e-08
"1563",4.3574434061e-09
"1564",0.053660643888733
"1565",1.61325897085618e-09
"1566",1.23076895341967e-08
"1567",0
"1568",4.18469214835682e-09
"1569",1.03271070583943e-08
"1570",5.32141830600352e-09
"1571",0
"1572",0
"1573",0
"1574",1.26132437827664e-12
"1575",3.15178770964319e-05
"1576",0
"1577",3.29911653551562e-11
"1578",0
"1579",1.72850622703891e-12
"1580",2.22044604925031e-15
"1581",0.372743487275073
"1582",0
"1583",0
"1584",0
"1585",0
"1586",0.000220894469333155
"1587",0
"1588",0
"1589",0
"1590",0
"1591",0
"1592",0
"1593",0
"1594",0
"1595",0.0195917182643269
"1596",0
"1597",0
"1598",0
"1599",0
"1600",2.63646948717167e-09
"1601",0
"1602",0.00114482397551285
"1603",5.96733342739242e-08
"1604",0
"1605",0
"1606",0
"1607",0.100397318398017
"1608",0.129990761731266
"1609",0.740893359172474
"1610",0.101232553582525
"1611",0.0982296616942655
"1612",0.157090483672414
"1613",0
"1614",1.25567293229878e-08
"1615",2.10742534534347e-12
"1616",0.0133053140659686
"1617",0.802352878184205
"1618",0.509622566927358
"1619",2.2314413222424e-05
"1620",0.00123034600993666
"1621",0.000224219765352807
"1622",0.264254756318205
"1623",0.153548183360794
"1624",0.00156156937801
"1625",0.0121889849784289
"1626",0.000171092278968166
"1627",0
"1628",0
"1629",0.00805929642089565
"1630",0.0354022882687974
"1631",3.32435898126038e-05
"1632",0.362076629778466
"1633",0.0756514119952413
"1634",0.0457740746064995
"1635",0.833487629861337
"1636",0.0369549533242269
"1637",0.0242526223176392
"1638",1.68274369694021e-06
"1639",0.00124787342272015
"1640",0
"1641",0
"1642",0.00177393755691213
"1643",1.08256922648486e-07
"1644",0.0185077370383936
"1645",0.897571708002986
"1646",0.0429190854286796
"1647",0.0111508197496304
"1648",0.782573843743799
"1649",0.0971504327456967
"1650",0.618959001606966
"1651",0.541818962821085
"1652",1.03047126387423e-10
"1653",7.35038295720525e-05
"1654",0.160305527104669
"1655",0.153251989456326
"1656",0.0871501547820205
"1657",0.00491648776043019
"1658",0.000703847474308628
"1659",0.0443262406047273
"1660",0.000386119281340025
"1661",0.0988053103256394
"1662",0.268724609008418
"1663",0.0843111705787646
"1664",0.284050947284577
"1665",0.119439390600417
"1666",0.250760465764344
"1667",0.448418081738707
"1668",0.00650025062898751
"1669",0.00538960367609553
"1670",4.12558875950708e-13
"1671",1.23534515950041e-12
"1672",0
"1673",7.03742841778876e-10
"1674",9.99200722162641e-16
"1675",0.278885132562353
"1676",0.000117055212439876
"1677",0.000312354498211098
"1678",0.0019522481221842
"1679",0.0325224569424096
"1680",0.856265765037463
"1681",0.0233932877891113
"1682",0.00405116667834504
"1683",1.59108144373032e-05
"1684",0.700391390033693
"1685",0.00449063016894546
"1686",0.0225095353600743
"1687",0.498065578353213
"1688",0.337497603967783
"1689",0.120481303467272
"1690",0.187602083146982
"1691",0.0592087314496915
"1692",0.750838836991257
"1693",0.0010839936250745
"1694",7.22914769204497e-05
"1695",4.95562267555094e-07
"1696",2.86493273549127e-10
"1697",0.161576361793317
"1698",0.0155473626953246
"1699",0
"1700",0
"1701",0.128914835916033
"1702",0.527108373583159
"1703",0.16961883383486
"1704",0.184864470246949
"1705",0.0104943184449204
"1706",0
"1707",0
"1708",0
"1709",0
"1710",0.00372512210915843
"1711",0.0728313055615171
"1712",1.36793903982024e-07
"1713",0.00597117470622166
"1714",0.000194119122305825
"1715",0.0310000331976417
"1716",0.0966923046768597
"1717",0.0555451888382337
"1718",4.07632445564854e-06
"1719",1.11022302462516e-16
"1720",0
"1721",1.99642641307562e-08
"1722",0
"1723",6.66133814775094e-16
"1724",0
"1725",0
"1726",0
"1727",3.31956684362922e-14
"1728",0
"1729",0.0348085652568039
"1730",0.000458500849104593
"1731",0
"1732",1.90958360235527e-12
"1733",0.116833769571417
"1734",0.0548656255786185
"1735",0
"1736",0
"1737",0
"1738",0.00107876729402312
"1739",0.257939143337919
"1740",0.000177504262971917
"1741",0.000232123484000257
"1742",0
"1743",0
"1744",0.0191267410913959
"1745",0.00474509524949862
"1746",0
"1747",0.111482988521351
"1748",0.00522287778147579
"1749",0
"1750",5.20473515508435e-07
"1751",0
"1752",0
"1753",0
"1754",0
"1755",0.143326704648138
"1756",1.39558556956354e-05
"1757",1.42413966586208e-06
"1758",0.507780339384136
"1759",0
"1760",0
"1761",0
"1762",0.00244977259566859
"1763",0
"1764",1.02757716780033e-08
"1765",0
"1766",1.48703271918293e-12
"1767",0
"1768",0
"1769",0.167276301439416
"1770",2.77959761141311e-06
"1771",4.08573175292304e-12
"1772",0.0119171353410357
"1773",8.54531023175564e-06
"1774",0.000382125432214941
"1775",4.32344201695134e-06
"1776",0.557764723721482
"1777",7.55262519192001e-12
"1778",0.00130113653893715
"1779",0.000712973217115387
"1780",4.46057847233172e-05
"1781",0.000128463946526991
"1782",2.86130389826056e-07
"1783",0.0141426889098423
"1784",0.0155668111993135
"1785",0.0687300693360021
"1786",1.1912932323499e-05
"1787",0.520290057022522
"1788",0
"1789",0
"1790",4.96497526181194e-06
"1791",0.417642001057703
"1792",6.2119336710742e-05
"1793",0
"1794",0.262394152883331
"1795",0.057177900095712
"1796",0.00112010788306882
"1797",0.0186066279159003
"1798",0.0103358102683366
"1799",0.211105706257643
"1800",0
"1801",0.11164590944692
"1802",0.0318952138185351
"1803",0.00359358245146313
"1804",0.000122934637005634
"1805",0
"1806",1.28601426508945e-05
"1807",6.98222444495133e-06
"1808",0.0343439615310062
"1809",0.0397163466596848
"1810",9.43445598988735e-05
"1811",0.00247657394240441
"1812",0
"1813",0
"1814",0.0408180325124856
"1815",0
"1816",9.0636551258072e-05
"1817",0.00120617503569342
"1818",5.29102582488283e-05
"1819",0.107059997366711
"1820",0
"1821",0
"1822",0
"1823",5.26551891014693e-05
"1824",0.00703670924418476
"1825",0.19796292723563
"1826",0.308793287442167
"1827",3.40245317143051e-07
"1828",0.00171076095395617
"1829",0.0050505051592431
"1830",0.743470157235541
"1831",0.107661905214086
"1832",0.0086450408231914
"1833",0.375924498844546
"1834",0.227027645738792
"1835",0
"1836",0.562810875573161
"1837",0.334137955274068
"1838",0
"1839",0.000141433024939186
"1840",0.0018040736527728
"1841",0.001616746136759
"1842",0.0424537127741611
"1843",0.000741915302570284
"1844",0.000527021835641239
"1845",0
"1846",0
"1847",0.00162276638997316
"1848",0
"1849",0
"1850",0
"1851",1.6920133516507e-08
"1852",5.1315107718608e-10
"1853",0.000446453639826982
"1854",0.0126831642677773
"1855",0.909393980097843
"1856",0.00290977698770356
"1857",0.22938279500684
"1858",0.843626105074684
"1859",0.00264835792253459
"1860",0.0522496037085485
"1861",0.0304395319707295
"1862",0.110535337039359
"1863",0.000344956185999279
"1864",0.00407297751647584
"1865",0
"1866",0.568979205650881
"1867",0
"1868",0
"1869",0
"1870",0.430658262653147
"1871",0.00702438599587474
"1872",0.48614857933143
"1873",0.193877220548974
"1874",0.436797710553831
"1875",0.0187144894730178
"1876",0.224639630800641
"1877",0.000778725255200396
"1878",0.00772849810673915
"1879",0.00482726647728771
"1880",0.0124094659078575
"1881",0.428535812890023
"1882",0.130192512322204
"1883",0.606915417959964
"1884",0.00043497889669597
"1885",0.0415042504273648
"1886",2.60326094014829e-09
"1887",0.228946338816626
"1888",3.42141911668925e-06
"1889",0.000535210381550022
"1890",0.0820332989421114
"1891",0.000168502084600508
"1892",1.03035139734642e-05
"1893",0.0014843051768344
"1894",0
"1895",0.0033870749199304
"1896",0.33207509294002
"1897",0.198241187860305
"1898",0.0718664427746473
"1899",0
"1900",0
"1901",0.00666224527302894
"1902",6.43929354282591e-15
"1903",1.969598837126e-05
"1904",0.0368188500560693
"1905",0.201786843132498
"1906",0.00119813444639427
"1907",0.0349783192229672
"1908",0.00153313912607822
"1909",9.66976531069363e-08
"1910",0.0164268319910472
"1911",0.000879983825586406
"1912",0.0314753387563904
"1913",0.000758744102230091
"1914",0.463163606522623
"1915",2.7289273839548e-06
"1916",0.341062651519901
"1917",0.0151344155214947
"1918",0.466931702462866
"1919",0.93728034701253
"1920",0.0319173518046476
"1921",0
"1922",0.21823335202254
"1923",0.010721787813308
"1924",0.930600721278355
"1925",0.0251198059764165
"1926",1.96702831800621e-09
"1927",0.104149216664832
"1928",0.00781740579506485
"1929",0.00204206651473626
"1930",0.264277048406765
"1931",3.42185210500112e-06
"1932",0.00136444226911381
"1933",0
"1934",0.000305770841457442
"1935",0
"1936",2.14224225025816e-08
"1937",1.77635683940025e-15
"1938",0.000504049088695502
"1939",0.00281036292198444
"1940",1.26420546697759e-07
"1941",0.221021467066235
"1942",3.29890815775613e-07
"1943",0.00883329963772517
"1944",0.000618791378013572
"1945",0.00765984142810994
"1946",4.8618495795294e-05
"1947",0
"1948",0
"1949",0
"1950",2.24725160108408e-05
"1951",0
"1952",1.60157053313847e-05
"1953",0
"1954",0.590102681889168
"1955",0.31142834331631
"1956",0
"1957",1.53210777398272e-14
"1958",0.00221255763347439
"1959",0.0238935344201424
"1960",0.218647807423192
"1961",0
"1962",0
"1963",0.000510236741528058
"1964",0.00116899529687586
"1965",0.000825219664888577
"1966",0
"1967",0
"1968",0
"1969",6.14775763851938e-07
"1970",7.82540698907042e-12
"1971",0
"1972",2.99629950106794e-06
"1973",0.0370503158401982
"1974",0.00307982983147459
"1975",5.79514880527654e-10
"1976",0.55291695103746
"1977",0.0722520016746959
"1978",0.000814034194532409
"1979",0
"1980",0
"1981",0.00377750406144095
"1982",0.14788780309057
"1983",0
"1984",0.499047639045192
"1985",3.89489522856223e-08
"1986",0
"1987",0.00290814263471495
"1988",1.21744541115021e-08
"1989",0.158467442490936
"1990",6.82180542177502e-05
"1991",4.07631004474274e-05
"1992",0.248041379368569
"1993",0.00244075668106325
"1994",1.43198572666314e-07
"1995",0.187882075443462
"1996",0.0435339162633037
"1997",0.515986728572371
"1998",0
"1999",0.0306034072424071
"2000",0.413602414794686
"2001",0
"2002",0.101065504107026
"2003",0.134590570441103
"2004",0.00318428545448446
"2005",0.105216378716873
"2006",1.12992703119597e-05
"2007",7.10878422793826e-09
"2008",0.492449610315246
"2009",3.77475828372553e-15
"2010",0.00202416141541184
"2011",0.0358457422783959
"2012",0
"2013",0
"2014",0
"2015",1.60877011368132e-05
"2016",0.314972498157265
"2017",0
"2018",0.038199706514554
"2019",0.438433065100307
"2020",0.0103235030056372
"2021",0.0331942147059067
"2022",0.0583230812991115
"2023",2.9927141437569e-05
"2024",0
"2025",1.40092382139301e-10
"2026",0
"2027",0
"2028",0
"2029",0.000423990390260975
"2030",0.0517456430279436
"2031",0
"2032",0
"2033",5.3424063173324e-08
"2034",0.000404785852331502
"2035",6.12385885756517e-05
"2036",2.05312978597272e-05
"2037",0.141160880104155
"2038",5.85771943839575e-07
"2039",0.000168592492225561
"2040",0.502560364911902
"2041",0.38204177477674
"2042",0.583361057602521
"2043",0.0133708693287734
"2044",0.673175811037344
"2045",0.368682604207039
"2046",0.23462519653574
"2047",0.254521987929953
"2048",0.217208916515294
"2049",0.346325353150322
"2050",0.0705944723718689
"2051",0.677804700464584
"2052",0.422914855611714
"2053",0.731952371595806
"2054",0.139750013078636
"2055",1.73445958706608e-08
"2056",0.0734862570703894
"2057",0.669847983758703
"2058",0.165443603794432
"2059",0.291235175997689
"2060",0.00523351316568232
"2061",0.00091044081498115
"2062",0
"2063",6.09362969098415e-05
"2064",0.0357767149764362
"2065",0.0214377017065901
"2066",0.000604115521134374
"2067",0.118598378689193
"2068",0
"2069",1.18465948162338e-09
"2070",0
"2071",0.0762409036795957
"2072",0.17749202224107
"2073",0.503104497935587
"2074",8.59711576373101e-08
"2075",7.57665201535085e-05
"2076",0
"2077",2.41721087590463e-11
"2078",0.239450928201525
"2079",0.709937927412162
"2080",0.0448046359222583
"2081",0.255129761082796
"2082",0
"2083",0.077444665209037
"2084",0.0769179586007013
"2085",0.0398622136069742
"2086",0
"2087",0.228826185157202
"2088",0.0159080038307269
"2089",2.53824442575379e-08
"2090",1.36779476633819e-13
"2091",0.0644809675942117
"2092",1.31129794689322e-07
"2093",0
"2094",7.87201537288951e-09
"2095",0.0983026605636476
"2096",5.33550197678867e-06
"2097",7.92548453243391e-06
"2098",0
"2099",0
"2100",0.00146064403937141
"2101",0
"2102",0
"2103",0
"2104",0
"2105",0.0012023511210234
"2106",0.117718403830763
"2107",0.413183084491259
"2108",0
"2109",0.00277014761128647
"2110",0.000106216963938532
"2111",0.125491316787109
"2112",0
"2113",0
"2114",8.74803086081677e-07
"2115",0.0585911626316086
"2116",7.7715611723761e-16
"2117",0
"2118",1.84705125783058e-06
"2119",4.21884749357559e-15
"2120",7.50425294124835e-05
"2121",0.0944643856981097
"2122",2.99760216648792e-15
"2123",1.56065704803865e-08
"2124",0.194425124191822
"2125",0
"2126",0
"2127",0
"2128",0.00121282940866674
"2129",1.29395383297037e-11
"2130",5.01873307963141e-05
"2131",0
"2132",0
"2133",0
"2134",0
"2135",0
"2136",0
"2137",1.07984646335879e-06
"2138",0.00231567473956362
"2139",0.00255180890368845
"2140",0
"2141",1.11033404692762e-12
"2142",0.229791696272167
"2143",0.00453799906165342
"2144",0.00845574952143857
"2145",0
"2146",0
"2147",0
"2148",0
"2149",0.0680376906300617
"2150",0.000467908417467355
"2151",0.0456981913452226
"2152",0.081431835344274
"2153",8.32667268468867e-15
"2154",0
"2155",0.0903437216274028
"2156",3.33066907387547e-16
"2157",6.35377924184111e-05
"2158",1.34576330143021e-05
"2159",0.00320560317174123
"2160",1.13574696758434e-06
"2161",0.0102492370340804
"2162",0.152441547278583
"2163",4.7818368079322e-05
"2164",0.0119252861368389
"2165",7.81723257796685e-05
"2166",0.00722666263702354
"2167",1.93826333871883e-08
"2168",7.82029383028515e-07
"2169",0
"2170",0
"2171",0
"2172",0
"2173",0
"2174",0.0331991297929511
"2175",0.785624230576031
"2176",1.31705757411282e-12
"2177",0
"2178",0.213016647548671
"2179",0
"2180",0
"2181",3.72915143209696e-10
"2182",0.0603889230264928
"2183",0.00986593153438131
"2184",0.0352240621312863
"2185",0.000362480880048865
"2186",0.000234933852352515
"2187",0.15037686740491
"2188",2.84961476637591e-09
"2189",0
"2190",1.0502709812954e-13
"2191",0.046362476841078
"2192",0.00292930353941756
"2193",0
"2194",0
"2195",7.40099759255486e-10
"2196",0.53191999048082
"2197",0
"2198",0.0261042838748475
"2199",2.41391658883927e-06
"2200",2.7262097634928e-07
"2201",7.37499294967137e-09
"2202",5.5850062352647e-06
"2203",0.0571926504961248
"2204",0
"2205",5.68646545550111e-05
"2206",0.237377805522427
"2207",0.0563446295731055
"2208",0.271147995063576
"2209",0.0144776197131675
"2210",0.00812532815330236
"2211",0.0279376679885885
"2212",0
"2213",0.177423731941558
"2214",0.291380277161746
"2215",2.1094237467878e-15
"2216",0.180518593300791
"2217",0.00535393320309019
"2218",0.210928859407049
"2219",0.0412638056111037
"2220",2.04651851021254e-11
"2221",0.00023165251496704
"2222",0.354982496376975
"2223",0.000664726118922432
"2224",0.077226659765425
"2225",0
"2226",1.09473101150837e-05
"2227",0
"2228",0.000431996264671719
"2229",0.0708266347268757
"2230",2.22732348298393e-06
"2231",0
"2232",0
"2233",6.84869745914973e-07
"2234",0.0204175861649251
"2235",9.52344314519848e-09
"2236",0.000424453644346068
"2237",0.000492711851658778
"2238",0.253472894764162
"2239",0.0145408966623792
"2240",0.000115972846850831
"2241",0.596463591715004
"2242",0.000678003017308471
"2243",6.35809741421633e-05
"2244",5.60671509219901e-10
"2245",0.00589909380279274
"2246",0.0152284871445098
"2247",0.00227392363526857
"2248",0.000127534001820973
"2249",1.48571051183932e-06
"2250",0.89448424922975
"2251",1.25529859014151e-05
"2252",0.00299229905041087
"2253",0.289062212004812
"2254",0.630601481759731
"2255",8.10462807976364e-15
"2256",1.26829391433603e-09
"2257",0.00134014694589424
"2258",0.00199953716451218
"2259",0
"2260",0.0639236476148013
"2261",0
"2262",0.0260886531609739
"2263",0.00117000002819212
"2264",0.269379246573834
"2265",0
"2266",3.45357076270147e-12
"2267",0.000144587148673381
"2268",0
"2269",0.0284077066992788
"2270",0.000144429474049579
"2271",0
"2272",0.014453396243887
"2273",0.00157426220936774
"2274",0
"2275",2.68252293256221e-05
"2276",4.51437101589569e-07
"2277",0.00029305221024245
"2278",0.338718676320494
"2279",2.46631519058571e-05
"2280",0
"2281",0.00860435955147099
"2282",0.0132071726679269
"2283",0.000730719863154428
"2284",0.169791414510765
"2285",0
"2286",0.00101251394155266
"2287",9.81446996829449e-05
"2288",0.000186115670914977
"2289",0.129377099073777
"2290",0.0246367490287123
"2291",0.0329299513071569
"2292",3.15383719140527e-10
"2293",0
"2294",0.00113745238409835
"2295",0.0617839333904198
"2296",0.0787065723446705
"2297",0.00210277308307305
"2298",0
"2299",0
"2300",0
"2301",1.43987569423132e-07
"2302",0.0161741115341
"2303",0.000154376534215683
"2304",3.74360920417649e-05
"2305",0.0920811853679897
"2306",0.000116727197002064
"2307",0.00602823356059901
"2308",3.07306069924351e-07
"2309",0.000120970129661058
"2310",0
"2311",1.88260635418658e-05
"2312",0.048311458275672
"2313",4.12891942858096e-13
"2314",0
"2315",0
"2316",0
"2317",0
"2318",0
"2319",0.000174793314686617
"2320",0.0100913413221234
"2321",7.42480742443874e-07
"2322",4.1833569941474e-10
"2323",5.72684959387892e-06
"2324",0
"2325",0
"2326",4.98711994245671e-06
"2327",0.840950507047028
"2328",9.1599424900668e-07
"2329",0.000343811403630712
"2330",0.000145560143235968
"2331",0.00495735175096412
"2332",0
"2333",0.0800634181662641
"2334",5.1096125651684e-06
"2335",0.000906240284256676
"2336",0.0100477737997988
"2337",7.41473482612776e-09
"2338",0.492859456900952
"2339",7.78262676526253e-10
"2340",0.000776017665020334
"2341",0.0394416723020198
"2342",0.147458809029764
"2343",2.48689957516035e-14
"2344",0.90217722684012
"2345",0.084795479389973
"2346",0.00564791341259763
"2347",0.06126354008028
"2348",2.84381948456591e-06
"2349",0.0789224466455971
"2350",0.015472508458657
"2351",9.39497333883876e-05
"2352",1.25455201782643e-13
"2353",3.54161144855425e-13
"2354",0
"2355",0
"2356",0
"2357",0
"2358",0
"2359",0
"2360",6.62552584529408e-06
"2361",2.27980678779716e-09
"2362",0
"2363",0
"2364",0.612749166753149
"2365",0.000507600581608258
"2366",3.52728357246868e-05
"2367",0
"2368",4.44089209850063e-16
"2369",7.11578423406856e-07
"2370",0.000206846012351325
"2371",4.29272298125838e-05
"2372",9.88990544159574e-06
"2373",1.51137542639956e-05
"2374",0.000113949532038582
"2375",0.0723836918056251
"2376",1.64968948501709e-08
"2377",7.24989008826782e-08
"2378",6.63935207900757e-06
"2379",3.33691141385373e-09
"2380",0
"2381",6.93047299737959e-06
"2382",0
"2383",1.39025901901846e-10
"2384",7.50066675436756e-13
"2385",1.9755448527059e-05
"2386",0.000129699441336117
"2387",4.57112125928916e-12
"2388",1.28567814873248e-05
"2389",1.29419853621693e-05
"2390",0.00218154689637728
"2391",0.0097424605490205
"2392",4.23173107666486e-09
"2393",2.34524457948249e-05
"2394",3.57870533207461e-09
"2395",0
"2396",0.000505730893431533
"2397",0
"2398",2.39962416404005e-06
"2399",8.90466589353878e-11
"2400",8.31701767002313e-05
"2401",0
"2402",0.00024929593323586
"2403",3.83775657475383e-07
"2404",1.52044893197978e-06
"2405",5.18881915212432e-09
"2406",5.06850117432123e-12
"2407",0
"2408",2.17546314296158e-10
"2409",1.16467737676373e-08
"2410",0
"2411",2.54156912182779e-08
"2412",9.36417610120088e-12
"2413",0
"2414",0
"2415",0
"2416",0.000478047962099271
"2417",5.85509418726815e-12
"2418",6.66133814775094e-16
"2419",2.16596730450158e-05
"2420",0
"2421",0
"2422",0
"2423",2.3839141771731e-07
"2424",1.82649750879449e-09
"2425",8.88178419700125e-16
"2426",3.65955754588754e-09
"2427",1.68070510842e-08
"2428",7.81880352412889e-05
"2429",1.24344978758018e-14
"2430",2.17159623616681e-13
"2431",1.30579114188123e-09
"2432",0.000196096836342252
"2433",1.2165348151072e-07
"2434",0
"2435",6.39058129525694e-06
"2436",1.38777878078145e-14
"2437",6.67951033866965e-05
"2438",4.31824761504274e-08
"2439",4.0917154997544e-08
"2440",0.00417813198458461
"2441",6.69411754644633e-05
"2442",0
"2443",1.69086966650411e-13
"2444",1.79943698275231e-07
"2445",0.0586742627388961
"2446",0.0343129060401384
"2447",0
"2448",0
"2449",4.39759340054025e-13
"2450",0.0140291017281563
"2451",0.018172970402067
"2452",0.0343013273572904
"2453",0.0327922237642359
"2454",1.39894290873688e-06
"2455",0.016013455158703
"2456",2.60955802633411e-07
"2457",0.0021773718153747
"2458",3.09126064745868e-08
"2459",0.00114979533861281
"2460",0
"2461",0.297318719642457
"2462",3.34717990546629e-07
"2463",0
"2464",0.0489248785592898
"2465",0
"2466",9.70073632533541e-09
"2467",0
"2468",0.0106710823479862
"2469",0.1704337059111
"2470",0.0454337198520876
"2471",8.80838959447239e-05
"2472",0.000379736182362533
"2473",0.00158279749705026
"2474",0.241908813447239
"2475",0
"2476",0.0484139810911289
"2477",0.457724958769838
"2478",0.314868666480256
"2479",0.633264578774122
"2480",4.13739131843727e-09
"2481",0
"2482",0
"2483",0
"2484",0.037558476668988
"2485",0
"2486",0.315331867553219
"2487",3.86235710081451e-09
"2488",0.00217958669952245
"2489",6.67254359143499e-06
"2490",0
"2491",0
"2492",7.15316694765988e-13
"2493",0
"2494",0.31148038967462
"2495",0.144997662264759
"2496",0.00549523028442678
"2497",0.00115011256710795
"2498",0.273885552859553
"2499",0.110659533275602
"2500",0.0893139848593651
"2501",0.0968827237705397
"2502",0.284116669565721
"2503",5.03309061095081e-10
"2504",0.493473551181339
"2505",0.880614690371624
"2506",0.102295367547951
"2507",0
"2508",0
"2509",0.556235809444048
"2510",0.0197340169235561
"2511",0.0244796077899898
"2512",8.23699567442659e-08
"2513",7.53721799562346e-06
"2514",0.000199791133688509
"2515",9.13713634864699e-07
"2516",0.00726296835337326
"2517",0.00931085278280885
"2518",0.075588739845581
"2519",1.800781745942e-13
"2520",0.00161246804453274
"2521",2.76449854824667e-05
"2522",0
"2523",1.13833977211097e-06
"2524",8.02696686896809e-10
"2525",2.67605570771767e-05
"2526",0
"2527",0
"2528",4.89579599083356e-10
"2529",2.49611139491179e-05
"2530",0
"2531",0
"2532",0.0516541318728962
"2533",0.00154173182873807
"2534",1.1516674036649e-07
"2535",9.86928120561004e-07
"2536",0.0441544212600876
"2537",6.79010558246596e-06
"2538",0
"2539",0.000823708541584645
"2540",2.86851653541476e-11
"2541",0.000275630702249674
"2542",1.21639356476244e-06
"2543",0.0014847376594207
"2544",0.000196753056106891
"2545",0
"2546",0
"2547",6.79336688014232e-08
"2548",3.88836740583542e-11
"2549",5.29481117674813e-05
"2550",2.03536132614701e-07
"2551",0.000353075254613699
"2552",0
"2553",7.93034575785612e-08
"2554",0.00351974899702046
"2555",5.85307148109893e-05
"2556",3.70712900421566e-06
"2557",0.000361565408401709
"2558",7.36611698867184e-05
"2559",1.91846538655227e-13
"2560",3.21384099333244e-08
"2561",0.00322655307300823
"2562",0.366314992657084
"2563",1.44529284873407e-07
"2564",0
"2565",0.0111246039546308
"2566",9.94201785897708e-06
"2567",2.23429536760911e-07
"2568",0
"2569",0
"2570",6.82907277913536e-05
"2571",1.07010820848963e-06
"2572",1.13008199675857e-06
"2573",3.31388262220234e-06
"2574",0.000225377237496827
"2575",1.11129342230676e-05
"2576",6.33058689580857e-07
"2577",5.72634602291622e-07
"2578",0
"2579",0.000277034575264956
"2580",0.0387847402790449
"2581",0
"2582",0
"2583",6.72126542378138e-06
"2584",0.136594963461771
"2585",1.53601700259021e-06
"2586",2.92261215228962e-10
"2587",1.75009297076478e-06
"2588",1.19505835227685e-07
"2589",7.57317270083657e-06
"2590",5.8829530356741e-05
"2591",0.00767540297521618
"2592",3.7533106607146e-06
"2593",0
"2594",0
"2595",0.000275702392240951
"2596",0
"2597",0.0178175299993293
"2598",3.30910940649076e-06
"2599",7.11985026491391e-10
"2600",0.0100927597682337
"2601",2.22234646036767e-05
"2602",3.50362969747664e-08
"2603",9.81870140748242e-11
"2604",5.73978971984968e-06
"2605",0.000184758455318623
"2606",4.7588522011921e-10
"2607",7.51310125224336e-11
"2608",0
"2609",0
"2610",0
"2611",9.5590202420226e-14
"2612",0.00058595235777692
"2613",0.00115785056095097
"2614",0
"2615",0.00369495674737375
"2616",2.58898569249766e-10
"2617",1.78665415795365e-09
"2618",7.61273514017224e-05
"2619",0
"2620",0.000341754632077085
"2621",2.61312579019624e-07
"2622",4.32954025963994e-08
"2623",3.48027162644371e-11
"2624",1.5327985769531e-08
"2625",2.9426334702265e-08
"2626",6.37987261634665e-05
"2627",7.69051489157846e-12
"2628",4.879754964493e-05
"2629",9.58009227502998e-11
"2630",0.00241613724722567
"2631",0.00102624948888119
"2632",6.24278406746726e-13
"2633",1.31304817752032e-06
"2634",0.000468537644714551
"2635",0.00460241849493981
"2636",3.11758878712709e-08
"2637",6.82105671945266e-09
"2638",2.26157571558971e-08
"2639",7.6781137003934e-11
"2640",2.44694142725876e-09
"2641",3.81551825634485e-06
"2642",8.16739020859103e-09
"2643",2.22044604925031e-15
"2644",6.47573706880067e-08
"2645",0.0019957273753719
"2646",0
"2647",0
"2648",0.0149775448510887
"2649",1.98562606135155e-07
"2650",0
"2651",0.00148656107357936
"2652",2.33146835171283e-15
"2653",0.000118402651161253
"2654",1.60389064673971e-06
"2655",5.44950725434035e-07
"2656",5.26712473636337e-09
"2657",2.66287769612461e-10
"2658",0
"2659",0.00102203985625604
"2660",0.00151709879116169
"2661",5.02320013362478e-07
"2662",0.000454313193846145
"2663",0
"2664",1.11038955807885e-11
"2665",1.94182342113658e-05
"2666",5.88624452091402e-05
"2667",9.50725779214068e-08
"2668",1.05436753156107e-05
"2669",0.000235591401310242
"2670",0.000168713553380329
"2671",0
"2672",0.0310719209883055
"2673",0
"2674",0.00155038810844765
"2675",2.32227974361621e-05
"2676",1.84061332775265e-06
"2677",0.00129081150671151
"2678",0.00631671118936306
"2679",1.15957684565515e-08
"2680",0.0733634258608569
"2681",0.00021746586678395
"2682",4.44089209850063e-16
"2683",0.949811719416062
"2684",3.34142181321884e-05
"2685",5.95741316278264e-08
"2686",1.71570022791112e-05
"2687",7.16840253822681e-10
"2688",8.08242361927114e-14
"2689",1.1731735731324e-05
"2690",0.902807970034335
"2691",0.000267859220443589
"2692",8.62499661580252e-07
"2693",0
"2694",0
"2695",0
"2696",7.57595208789041e-10
"2697",3.5485136506308e-05
"2698",0
"2699",0
"2700",0
"2701",0
"2702",2.77555756156289e-15
"2703",0
"2704",0.0479335591055399
"2705",0.344602472357606
"2706",0.579909159562578
"2707",4.44443148950313e-10
"2708",0.32069421685178
"2709",0.885853851454713
"2710",0
"2711",2.22044604925031e-15
"2712",0.00190339616763724
"2713",8.0188019841998e-06
"2714",2.44148083680118e-05
"2715",0.186476015122923
"2716",0
"2717",1.43218770176645e-14
"2718",0
"2719",0.000118187453843954
"2720",0
"2721",7.7715611723761e-16
"2722",0
"2723",2.49996245926809e-10
"2724",0.293101725953764
"2725",0.0121610724476167
"2726",9.78857465877558e-05
"2727",0
"2728",0.0894574521596051
"2729",0.797017548386969
"2730",0.195916192905167
"2731",0.000856016695824136
"2732",0.0135335155774231
"2733",0.252314853730886
"2734",9.29767263180281e-10
"2735",0.724082660460571
"2736",0.199656851766124
"2737",0
"2738",0
"2739",8.27978219841707e-06
"2740",0
"2741",0.000163001679539199
"2742",3.19599902098844e-12
"2743",0
"2744",0.0194385191672213
"2745",0.000235125876536402
"2746",0.00786375212883161
"2747",0
"2748",1.68400942079927e-08
"2749",0
"2750",7.28241374980954e-08
"2751",0
"2752",0.436193263576356
"2753",0
"2754",0.141941787952006
"2755",0.020576750551185
"2756",0
"2757",0
"2758",0.00168024068224992
"2759",0.290484910127855
"2760",0.331804173108169
"2761",0.0379128147611039
"2762",7.69407932517119e-05
"2763",0.227045256978031
"2764",0
"2765",0
"2766",0.00131481945880452
"2767",0.516746109640239
"2768",0.0411419875534258
"2769",1.22095486188023e-06
"2770",0
"2771",0
"2772",0
"2773",0.681355509341345
"2774",0.219059671061235
"2775",0.119036946734425
"2776",0.916259516713284
"2777",0.277095644343171
"2778",0.147019784605765
"2779",0.447983624892308
"2780",0
"2781",0
"2782",8.88178419700125e-16
"2783",0.18388461799102
"2784",2.98917703330792e-05
"2785",0.617263607826826
"2786",0.0431654212615928
"2787",0
"2788",0.355023683327789
"2789",0
"2790",0.0995346865340205
"2791",2.81940692792304e-07
"2792",0
"2793",0.0749930085149761
"2794",0.0634302817255206
"2795",0
"2796",6.31061869427185e-12
"2797",0
"2798",0
"2799",0
"2800",2.13846707008969e-08
"2801",0.644662528469392
"2802",0.337493082738211
"2803",0
"2804",6.34456931436489e-11
"2805",1.07358566481253e-13
"2806",0
"2807",1.07593611575751e-07
"2808",0.034077788963534
"2809",0
"2810",0
"2811",0.379652185753591
"2812",0
"2813",0
"2814",6.03234229235028e-09
"2815",0
"2816",5.93986840635718e-06
"2817",0.83736549282145
"2818",0.705556068369021
"2819",0.0254512634726205
"2820",0
"2821",0.0305943790138301
"2822",0.883021437350055
"2823",0.0841414418972752
"2824",0.217374109096691
"2825",0
"2826",0
"2827",0.942267739006044
"2828",0.535582277256837
"2829",0.529327343463375
"2830",0.246975258274082
"2831",0
"2832",2.65005466792978e-07
"2833",0
"2834",0.317692063362784
"2835",2.07278638697517e-13
"2836",6.37212653423758e-05
"2837",0.0402880311320577
"2838",0.103478505972245
"2839",0.265688310115208
"2840",0.248566052973992
"2841",4.59185134360496e-10
"2842",0
"2843",0.418996043253814
"2844",0.150044994695416
"2845",0.146263672440673
"2846",0.00213451426215616
"2847",0.00495741791271453
"2848",0.169035252398673
"2849",0
"2850",7.79686970542315e-09
"2851",3.86318228681182e-05
"2852",0.548174953697291
"2853",0.521783749762611
"2854",0.0878323162471347
"2855",0.0786440002639611
"2856",0.136393015390246
"2857",0.0964355686050741
"2858",0.137566412007873
"2859",0
"2860",0.580687885904446
"2861",0.0565800743359879
"2862",0.254103048164639
"2863",2.76001443921814e-13
"2864",2.30722773553182e-07
"2865",0.0289561255859607
"2866",3.26392730842784e-07
"2867",0
"2868",0.00897981059652775
"2869",0
"2870",0.0245447781644297
"2871",1.06093837032306e-05
"2872",0
"2873",0.000207061584786006
"2874",1.15463194561016e-14
"2875",0
"2876",2.72546702984044e-08
"2877",8.73208378799895e-05
"2878",4.92307330457464e-08
"2879",1.02761070073232e-05
"2880",0.000184750062342753
"2881",0.298497633967357
"2882",0
"2883",0.000256256696348212
"2884",1.20015108961979e-13
"2885",0.154251959398169
"2886",1.57890694203466e-05
"2887",9.93596316334333e-11
"2888",0
"2889",1.15140452727758e-10
"2890",0
"2891",3.91268017985169e-10
"2892",0
"2893",0
"2894",9.79205749929157e-07
"2895",0
"2896",0
"2897",0
"2898",0
"2899",0.00246812466746671
"2900",0
"2901",0
"2902",0
"2903",5.98367577708814e-10
"2904",0
"2905",0
"2906",0.305014408466072
"2907",0
"2908",0
"2909",9.36111502213288e-05
"2910",0
"2911",0
"2912",0
"2913",0
"2914",4.28721059764214e-08
"2915",0.000879731136737005
"2916",0
"2917",0
"2918",0
"2919",0
"2920",0
"2921",0
"2922",0
"2923",0.110890450266039
"2924",0
"2925",0
"2926",0
"2927",0
"2928",0.000481119243525785
"2929",0
"2930",0
"2931",0
"2932",0
"2933",0.00494127614539075
"2934",1.5904912564757e-07
"2935",1.42428402405415e-09
"2936",0
"2937",0
"2938",0.517307027960502
"2939",6.3948846218409e-14
"2940",5.61493150299519e-05
"2941",0
"2942",0
"2943",0
"2944",0.00161933265517311
"2945",0.108574300489859
"2946",0
"2947",0
"2948",0
"2949",0.0400768106996769
"2950",0
"2951",0
"2952",0
"2953",3.32850378891303e-05
"2954",0
"2955",0
"2956",0
"2957",0
"2958",0.0347715957277133
"2959",0
"2960",0
"2961",0
"2962",0
"2963",0
"2964",0
"2965",0
"2966",0
"2967",0
"2968",0
"2969",0
"2970",0
"2971",7.23148872704416e-05
"2972",0
"2973",3.19919176705596e-08
"2974",0
"2975",0
"2976",0.00439967397246066
"2977",1.20758958388478e-12
"2978",0
"2979",0
"2980",0
"2981",0
"2982",0.000174419547926852
"2983",0
"2984",8.95431013780978e-08
"2985",7.36077865326479e-14
"2986",0
"2987",7.63007435011787e-11
"2988",0
"2989",2.09785790853401e-05
"2990",0.000184897076221269
"2991",0
"2992",0
"2993",0
"2994",0
"2995",0
"2996",0
"2997",0
"2998",0
"2999",0
"3000",0
"3001",1.62361235567232e-11
"3002",0
"3003",0
"3004",2.57549360194176e-06
"3005",0
"3006",0
"3007",0
"3008",0
"3009",2.98727420577904e-09
"3010",0
"3011",3.99470020040482e-06
"3012",0
"3013",0
"3014",8.88178419700125e-16
"3015",0
"3016",3.58602036953926e-14
"3017",0
"3018",0
"3019",0
"3020",0
"3021",0
"3022",0
"3023",0
"3024",0
"3025",0.150348477523023
"3026",0
"3027",0.137190693542064
"3028",2.01310079717132e-11
"3029",0
"3030",0
"3031",0
"3032",0
"3033",0.00134577298605121
"3034",0
"3035",1.0769163338864e-14
"3036",1.20054451658858e-05
"3037",0
"3038",0
"3039",0
"3040",0
"3041",0
"3042",0
"3043",0
"3044",0
"3045",0
"3046",0
"3047",0.168354171162304
"3048",0.00470823476599214
"3049",0.0638545122711269
"3050",0.0273983635034971
"3051",1.75026019944013e-06
"3052",0.0438965547392147
"3053",0.00516257301093159
"3054",0.650239873640324
"3055",0
"3056",2.00728322852228e-13
"3057",5.60482831581943e-05
"3058",0
"3059",0
"3060",0
"3061",0
"3062",0.00201829126835029
"3063",0.0837468173865636
"3064",0.0060929312570166
"3065",0.0404617957748356
"3066",1.11022302462516e-15
"3067",0
"3068",3.00739468739319e-06
"3069",0
"3070",0.000210651293217623
"3071",5.44009282066327e-15
"3072",6.0208717490573e-06
"3073",0
"3074",0.00593157010841061
"3075",0.0221008339457319
"3076",3.04826830443972e-10
"3077",0.00182371083686683
"3078",0.000295352190036069
"3079",0
"3080",0.0124471015727583
"3081",0.0176752982809532
"3082",0
"3083",0
"3084",0
"3085",0
"3086",0
"3087",0
"3088",0
"3089",0
"3090",0
"3091",0
"3092",0
"3093",0
"3094",0
"3095",0
"3096",0
"3097",0
"3098",0
