"","x"
"1",0.504573288547791
"2",0.964088477435045
"3",0.932350314906358
"4",0.783325942164544
"5",0.00567883131140134
"6",0.990323028287025
"7",0.340682930141311
"8",0.512379307314707
"9",0.745530687788546
"10",0.400605733068803
"11",0.295588507297811
"12",0.507792713135832
"13",0.964216969710749
"14",0.796258366003944
"15",0.595816173057227
"16",0.999926119438737
"17",0.455763184568845
"18",0.274491491371731
"19",0.0517971512603802
"20",0.923740635005484
"21",0.268947289020535
"22",0.996219661314454
"23",0.69647616109519
"24",0.0110696545533565
"25",0.994463500615953
"26",0.999991816173825
"27",0.805851694784759
"28",0.847762920341874
"29",0.779800415407668
"30",0
"31",0
"32",3.96183086337487e-12
"33",0
"34",0
"35",1.6202368890994e-08
"36",2.08714157068357e-11
"37",1.708447827653e-10
"38",1.11022302462516e-16
"39",0
"40",0.0369443500681642
"41",0.0467927014070705
"42",0.491205077064583
"43",0.0170905713348355
"44",0
"45",6.53445743070691e-08
"46",0
"47",0.0420389569353692
"48",0.826107184172092
"49",0.197484596750223
"50",0.636349471238087
"51",0.501454435557592
"52",2.06870465202513e-09
"53",0.0139556944584399
"54",0.981302196952229
"55",0.0308344246365289
"56",0.0120616457031746
"57",0.00660983069957721
"58",0.655029965015332
"59",0.177919489140146
"60",0.000393461576253307
"61",0.102698738041913
"62",0.93938680216847
"63",0.944637150336344
"64",0.0201563265614205
"65",0.304382155776941
"66",0.466089522264544
"67",0.0634076401884742
"68",0.677049597549344
"69",0.879466940411847
"70",0.0874084775461408
"71",0.816462138441569
"72",0.851658241183883
"73",0.632544087638094
"74",0.493890798851914
"75",0.857888727710794
"76",0.525814233225413
"77",0.749059047328636
"78",0.0450061942677219
"79",0.530944413809326
"80",0.564951777379401
"81",0.195767123394382
"82",0.254337578203714
"83",0.498745871362532
"84",0.183069590672257
"85",0.23489503919232
"86",0.853796839919038
"87",0.760035707928891
"88",0.753495739197452
"89",0.812261657649167
"90",0.894337662803631
"91",0.00901474959557136
"92",0.995574458446383
"93",0.112759626320137
"94",0.262383235653905
"95",0.567164706217996
"96",6.51700915454967e-14
"97",0.0226057319066564
"98",0.40588611094515
"99",0.0443478251040565
"100",0.734345168644926
"101",0.0261620892340167
"102",0.324559701330358
"103",0.114453533121732
"104",0.213756562587281
"105",0.481361092457556
"106",0.93062331432264
"107",0.0111717213517809
"108",0.497007864321797
"109",0.172603610497168
"110",0.0126707582146869
"111",0.943245962469642
"112",0.97631392050703
"113",0.327850835138361
"114",0.918956565120558
"115",0.711454504138052
"116",0.0235692045525867
"117",0.656438228795826
"118",0.424716567639069
"119",3.73054157454256e-07
"120",0.00551251306900991
"121",0.495707242731535
"122",0.464697985490864
"123",0.181170357208885
"124",0.66418950987456
"125",0.201854746390793
"126",3.15777533765882e-06
"127",0.717972293610794
"128",0.49378504408429
"129",0.344141234887504
"130",0.171132948726525
"131",0.963705143489842
"132",3.64793682927633e-07
"133",0.263578570251078
"134",0.114849632315327
"135",0.0179794093787258
"136",0.0604112547858977
"137",0.00111826544382299
"138",0.0106796795258022
"139",0.985774236901916
"140",0
"141",0
"142",3.70301684926577e-06
"143",0.984377175942612
"144",0.134111150027546
"145",0.547488753716715
"146",0.359356233721217
"147",0.361739653974086
"148",0.598043218987475
"149",0.816456194151939
"150",0.195376004281095
"151",0.000359502849619053
"152",0.134173306929199
"153",0.992137579135693
"154",0.175240677726182
"155",0.590670623197459
"156",0.00224665430892079
"157",0.0109664786437492
"158",0.370928808495582
"159",0.920783860790347
"160",0.998833515727803
"161",0.00545803489774566
"162",0.350296895275152
"163",0.590648705138842
"164",0.400247295422358
"165",0.00184451553359
"166",0.327305971268304
"167",0.591854120654269
"168",0.0574743181792773
"169",0.425308855124672
"170",0.442841702864951
"171",0.045440089667064
"172",0.846461508691444
"173",0.00317472403453689
"174",0.000125835968404653
"175",0.481182477252073
"176",0.83795744893335
"177",0.0556453181904851
"178",5.44928029551084e-05
"179",0.000959137041891323
"180",0.00671960406477912
"181",0.582405079222135
"182",0.0427506174872059
"183",0.279185300236649
"184",0.193000602963088
"185",0.495300811890242
"186",0.0482302032046568
"187",0.169052759489507
"188",0.397154978132398
"189",0.166761564491014
"190",0.101754559011833
"191",0.00227640427763864
"192",0.000144576334925928
"193",0.039836887894775
"194",0.000956025280606232
"195",0.00016039481184793
"196",0.0427241491057248
"197",0.393435380893435
"198",0.457217694464214
"199",0.691616198332423
"200",5.86098102051125e-07
"201",0.341704546518629
"202",0.219176775859824
"203",0.447968904822346
"204",0.00673407084808031
"205",0.409623265449414
"206",0.216705469166097
"207",0.172558593288181
"208",0.989099555037885
"209",0.21309520275999
"210",5.9112429189101e-05
"211",0
"212",0.494096033423573
"213",0.890190971914226
"214",0.0631735883906059
"215",0
"216",0.0892314336711599
"217",2.60586093925319e-07
"218",0
"219",0.33807665377976
"220",0.0302898008927602
"221",0.440567490573997
"222",0.694490592228628
"223",0.0121338937469609
"224",0.289657555696754
"225",0.800953294757439
"226",0.0725808316013317
"227",0
"228",0.893730767556445
"229",0.000214871872324385
"230",0
"231",0
"232",0.18375517971405
"233",0.634950751845071
"234",0.532442709197019
"235",0.652076500115124
"236",0.519584614506979
"237",0.385494419260573
"238",0
"239",0.000436975389840666
"240",0
"241",0
"242",0.00131938613034743
"243",0.853632265129948
"244",0.0117497914136393
"245",0.028989272824897
"246",0.366215360244491
"247",0.567069494960465
"248",0.0218107316110765
"249",1.2264039813692e-06
"250",0.539977471791543
"251",0.0608790439478226
"252",1.77441172866111e-10
"253",0.635584784966302
"254",0.0123307953102156
"255",0.0802259046905673
"256",0.307380785568002
"257",0.799303409748696
"258",1.33515420941421e-12
"259",0.446434996673571
"260",0.85820919208711
"261",1.17560405854533e-11
"262",0
"263",0
"264",1.7714549715997e-08
"265",8.37582777196699e-05
"266",0.447311604330192
"267",0.0454036123048297
"268",0.0901072745523982
"269",0.437376137456617
"270",0.34025093216783
"271",1.58827495932989e-06
"272",0.410587222359532
"273",0.120282726046755
"274",0.841711784578429
"275",0.00446598575070445
"276",0.552760516663825
"277",0.000786578605662225
"278",0.490957706447883
"279",0.626735847580423
"280",0.291270216969931
"281",0.0882034465561368
"282",0.0256499641405047
"283",0.235923397627731
"284",0.401293148306872
"285",0.46585200507555
"286",0.162752887417785
"287",0.0583598470534281
"288",0.521671326380194
"289",0.593553742452461
"290",0.00241910623141528
"291",0.00177995391676877
"292",0.546963083634792
"293",0.176046282342605
"294",0.349776893421791
"295",0.990258017595265
"296",0.0845717839573746
"297",0.535527537263061
"298",0.0382130808990946
"299",0.79226291076119
"300",0.943426292899283
"301",0.440348300621017
"302",0.0781858931861055
"303",0.396808416674469
"304",5.51705820517334e-06
"305",0.000384713099399137
"306",0.406317809191373
"307",0.168986438804834
"308",0.846917043021822
"309",0.347598480007527
"310",0.221532571481831
"311",0.740370965177162
"312",0.743170107561234
"313",0.961886615826853
"314",0.362719488916935
"315",0.220272514649775
"316",0.457517382839716
"317",0.231729664350038
"318",0.0981531925543684
"319",0.0512555546511043
"320",0.415398105210509
"321",0.865512558067127
"322",0.0414732258475867
"323",0.250829245298774
"324",0.678969857557925
"325",0.915037180643864
"326",0.128454058981757
"327",0.576938302437607
"328",0.000170765337804468
"329",0.114767515427445
"330",0.93149607131207
"331",0.378969900066753
"332",0.671664341496935
"333",0.23544843649194
"334",0
"335",0.000757108549307994
"336",0.837524573852825
"337",0.329351506408928
"338",0.345231018281107
"339",0.512234750919054
"340",0.409497384502158
"341",0.0872036951456779
"342",8.15508295165523e-05
"343",0.00454166684483603
"344",3.51086647532028e-08
"345",0.565460956496764
"346",0.0840670911354305
"347",0.199894304392036
"348",0.34826514971712
"349",2.7706437144559e-10
"350",0.0780707529714972
"351",0.0946732595848361
"352",0.293598834618662
"353",0.224844039413611
"354",0.640633108356998
"355",0.0671181576547856
"356",0.00559047481654229
"357",0.325931663056615
"358",0.790471927769268
"359",9.9253938401489e-14
"360",0.000284242792214728
"361",0.46259251617366
"362",0.0202458471649742
"363",1.30429000932963e-12
"364",0.0076437237856436
"365",9.43549025655965e-06
"366",0.458274203441955
"367",0.0535239200973552
"368",0.19527261245094
"369",9.17288134338889e-10
"370",0.0733586989164657
"371",0.867222356895725
"372",0.712943761184671
"373",0.11282404496462
"374",0.295119205371409
"375",0.087545172915914
"376",0.177887740826687
"377",0.271234827024947
"378",0.0803346068408017
"379",0.371505270154379
"380",0.400409649545114
"381",0.236487786346732
"382",0.496318713921188
"383",9.90997284233686e-11
"384",0.000125694110315933
"385",0.833475918488343
"386",0.750767422700147
"387",0.587020840906435
"388",0.360841375264077
"389",0.0191045700325265
"390",0.636622235151635
"391",0.0274908640073089
"392",0.747380029948566
"393",0.0224878680682269
"394",0.07545291372534
"395",0.914670245184275
"396",0.805106582782633
"397",0.191304147189272
"398",0.436573443102468
"399",0.00198300864198153
"400",0.740540427281651
"401",0.381071119767763
"402",3.33066907387547e-16
"403",0.0990930286286837
"404",3.94129173741931e-14
"405",9.46710340303802e-05
"406",1.11022302462516e-16
"407",0.00921784478061993
"408",0.553768542893263
"409",0.0565786786489708
"410",0.225850586617359
"411",0.268972145237218
"412",0.0756550859396666
"413",0.039174301527014
"414",0.321546382521335
"415",0.0466441127922345
"416",0.0289504911053777
"417",0.202027870515972
"418",0.247863729097588
"419",0.00189749308441056
"420",0
"421",0.489430733755368
"422",0.0208093224543106
"423",0.0446543570644475
"424",0.233272088522587
"425",0.0759787416609066
"426",0.0273715566764706
"427",0.966080866166228
"428",0.427588261709798
"429",0.844597209796845
"430",1.87627691161651e-13
"431",0.0349727775640953
"432",0.00644397597446289
"433",0.00757670171600511
"434",0.727895309599448
"435",0.996253526208615
"436",0.0458081768224893
"437",0.388381838201142
"438",0.578579503497901
"439",0.560387308892661
"440",0.0749685632661768
"441",0.829575706253548
"442",0.848723808049224
"443",0.0187295639558939
"444",0.0335020265087149
"445",0.364943671206
"446",0.0287093152416461
"447",0.845213461181197
"448",0.83460128141928
"449",0.660752634023721
"450",0
"451",0.00490281462391262
"452",0.000638449305650823
"453",0.0503151149361082
"454",0.308906688506134
"455",1.666874874795e-07
"456",0.176613056344181
"457",0.928111080147287
"458",0.755703862178987
"459",0.467584112198309
"460",0.312942008645316
"461",0.00999062115927574
"462",0.400513774147085
"463",0.972292944433164
"464",0.301471810645714
"465",0.419997402226034
"466",0.000104664447317604
"467",0.0688205576892615
"468",0.733134943878601
"469",0.203533966884582
"470",0.903951626688586
"471",0.0473776671780056
"472",0.00942708567073869
"473",0.0337777563158084
"474",0.257832549224937
"475",0.685634804342946
"476",0.423898148427601
"477",0.00800605335941251
"478",1.11022302462516e-15
"479",0.376401292061919
"480",0.0113633219797628
"481",0.00253915875194155
"482",0.519931442784451
"483",0.298218803452337
"484",0.0013880181293463
"485",0.21539954668747
"486",0.59246024737967
"487",0.35425975795662
"488",0.475556276195963
"489",0.243134519342302
"490",0.924643392344175
"491",0.250173066514032
"492",0.0897459000152715
"493",0.0389994327224717
"494",0.0160280465741025
"495",0.513272397784747
"496",0.863964379046087
"497",0.936027283476274
"498",0.615078290877997
"499",0.802224364436598
"500",0.660122543073794
"501",0.0437598492832281
"502",0.720541820885956
"503",0.360805147041358
"504",0.00355382305458474
"505",0.00516699308256952
"506",0.918421148210722
"507",0.251941641867513
"508",0.146415216714275
"509",0.148156409485411
"510",0.53910391940366
"511",2.07340501738873e-05
"512",0.156999108779938
"513",0.784885310170321
"514",0.704786721923647
"515",0.585065238773135
"516",0.335536719126297
"517",0.160088054916861
"518",0.0740510084559169
"519",0.870331084151568
"520",0.770760433835364
"521",0.140666556593739
"522",0.133477471728238
"523",0.643418520590308
"524",0.268372414091881
"525",0.41792200157981
"526",0.137957109812124
"527",0.828235937681769
"528",0.447980109347014
"529",0.159506533083875
"530",0.0817737760936329
"531",0.2179052253023
"532",0.163198613481964
"533",0.394203570857496
"534",0.0267162745338136
"535",0.00757154384778957
"536",0.400239554811827
"537",0.439151945243893
"538",0.651751316747506
"539",0.0157799488127575
"540",0.629734943412525
"541",0.266243934495307
"542",0.243440655469621
"543",0.208226087968874
"544",0.555266695143606
"545",0.3025589692215
"546",0.819257532986401
"547",0.233598635785879
"548",0.333942137381712
"549",0.029777531542576
"550",0.672130566699612
"551",0.523461590393404
"552",0.289079108825633
"553",0.486276803051857
"554",0.692235249881469
"555",0.139164203765964
"556",0.0232700196910091
"557",0.800388914069871
"558",0.334090357767863
"559",0.0479866963365664
"560",0.592210119808552
"561",0.310583595526299
"562",0.117196218244893
"563",0.234788342361705
"564",2.60902410786912e-14
"565",0.713508766544044
"566",0.00784841352671506
"567",0.54244248375618
"568",0.88468843979634
"569",0.039145618983627
"570",0.252713093429047
"571",0.9167574949322
"572",0.227032413325642
"573",0.958722927786943
"574",0.309850923822298
"575",0.191501704631443
"576",0.860370337861234
"577",0.000954720468915871
"578",0.0531155140587293
"579",0.0729175616736543
"580",0.481157714648221
"581",0.0472107465607019
"582",0.347121922543153
"583",0.228085351551113
"584",0.056327215861968
"585",0.174968016008852
"586",0.991809301882373
"587",0.740007429800598
"588",2.28345699893051e-06
"589",0.520277171982008
"590",0.214988264258445
"591",5.38584936549125e-06
"592",0.526024845865822
"593",0.148096425432594
"594",0.452035573870188
"595",0.165853559760699
"596",0.325350383843019
"597",0.380831018779525
"598",0.457776851269371
"599",0
"600",0.594226583153695
"601",0.0827254837083617
"602",0.201301260461206
"603",0.187570373112169
"604",0.245810212954608
"605",0.98427604284201
"606",0.057289458685881
"607",0.0432289025799026
"608",0.140801714485876
"609",0.862841801043514
"610",0.0267994283431833
"611",0.942376423826037
"612",0.3799275300353
"613",0
"614",0.875625025132549
"615",0.0389795271401415
"616",0.00254731215487491
"617",0.287368981537768
"618",0.634468541223223
"619",0.330706925195488
"620",0.186216977369743
"621",0.595209534364458
"622",0.395838410910434
"623",0.139368037041751
"624",0.109539059970471
"625",6.66023900142143e-07
"626",0.00268184538042093
"627",0.220220249784136
"628",0.101384399556331
"629",0.895339730229153
"630",0.340738603658833
"631",0.149163806408622
"632",0.247952598667566
"633",0.0291189718040226
"634",0.00789307498572756
"635",0.00430626388201083
"636",0.0578783935565971
"637",0
"638",0.00699462409225382
"639",0.102762166581954
"640",0.288196936506713
"641",0.130241190923465
"642",0.607746064816671
"643",0.483645690142119
"644",0.0337464515385489
"645",0.583344475500704
"646",0.407668436035052
"647",0.625958868775781
"648",0.532913852714983
"649",0
"650",0.479658140354166
"651",0.074720825318103
"652",0.707305461187366
"653",0.434396678839599
"654",0
"655",1.75703885818557e-06
"656",0.244966950293735
"657",0.985852503896939
"658",0.750265941546878
"659",0.0634085305578213
"660",0
"661",0.0157006696557144
"662",8.10795874883752e-13
"663",0.216773178008181
"664",0.00209392190411917
"665",0
"666",8.92489261383744e-08
"667",0.0225114081783263
"668",1.11341302844181e-09
"669",0.0289372690696725
"670",0.262696838533721
"671",0.748995752388068
"672",1.03490173097853e-08
"673",2.25431517897334e-09
"674",1.4600884158833e-05
"675",0.00115589905199875
"676",0.0214062931496704
"677",0.0129906072372244
"678",4.79398742925241e-10
"679",0.377308452142822
"680",0.896604269238233
"681",0
"682",0
"683",1.06118151810275e-06
"684",4.08683664687715e-09
"685",0.0271006503786483
"686",3.89049201656722e-05
"687",0.137333557300837
"688",0
"689",0.981199010166564
"690",0.256700727974303
"691",0.124353299334144
"692",0.258972027338813
"693",0.213756334646999
"694",0.530878677324158
"695",0.214588155380669
"696",0.995699408112467
"697",0.258178611396602
"698",0.87753873910377
"699",0.0145765269657968
"700",0.0212164578365758
"701",0.551618709604355
"702",0.00137870367276804
"703",1.97418748015821e-11
"704",0.743829440438755
"705",0.101676476916493
"706",0.122646146447384
"707",0.365921452588435
"708",0
"709",0.0390707978780359
"710",4.6664728877599e-05
"711",0.317003373908044
"712",8.54871728961371e-15
"713",0.217826463930166
"714",1.17565590596058e-09
"715",0.351800054883248
"716",0.0138573088052851
"717",0.657939324084235
"718",0.181913299632226
"719",1.2090328738168e-13
"720",0.226877907004348
"721",0.771905544241849
"722",0.273782479180169
"723",0.480204525198547
"724",0.273220982061958
"725",0.876313086100157
"726",0.331294918159206
"727",0.159543128236183
"728",0.969712724242902
"729",0.269619903732697
"730",0.767496016620325
"731",0.845675253847996
"732",0.369000658765168
"733",0.851530765778186
"734",0.0778868122517038
"735",0.198989884538812
"736",0.323561650184465
"737",0.0859420717457599
"738",0.554772495853492
"739",0.250002426388705
"740",0.0454771945712568
"741",0.558874256118566
"742",0.823290568234318
"743",0.414317912089628
"744",0.154059633706421
"745",0.27142013448731
"746",0.158456494694984
"747",0.35826231266623
"748",0.319873088227952
"749",0.00728698285130613
"750",0.014369453474365
"751",0.305589925014296
"752",1.14475722590157e-06
"753",4.18751882058643e-08
"754",0.378170591998483
"755",0.0461499635615837
"756",0.729864184994143
"757",0.567720849417333
"758",0.253538665042019
"759",0.361589943256908
"760",0.741443651090687
"761",0.758981846059608
"762",0.958672338681539
"763",0.985464468102887
"764",0.147096890341974
"765",0.0412339550228059
"766",0.404536407660762
"767",0.0722946314304306
"768",1.88737914186277e-15
"769",0.684104455550197
"770",0.294078186344403
"771",0.523066895475824
"772",0.487349932079877
"773",0.350953868766164
"774",0.54181405377934
"775",0.809086425118985
"776",4.51978298898759e-07
"777",0.112065118885258
"778",0.877942471153075
"779",0.699096795706991
"780",1.73146273203528e-05
"781",0
"782",0.0694750928588113
"783",0.634149377491818
"784",0.71540576488456
"785",0.912240660317479
"786",0
"787",1.11022302462516e-16
"788",0.126871100270685
"789",0.124919045734186
"790",0.558962273654026
"791",0.100650271103768
"792",0.24439898229655
"793",0.400677641532695
"794",0.471096628771137
"795",0.186816226970347
"796",0.278660780202507
"797",0.303102729235486
"798",0.108447504049712
"799",0.0376274473526031
"800",0.523482715113671
"801",0.595727633635225
"802",0.599148973242534
"803",0.00933323781142659
"804",0.20182385140337
"805",0.00016884263403838
"806",0.0808994911109392
"807",0.430137640812111
"808",0.299984384615813
"809",0.00194128073380917
"810",0.232566281365434
"811",0.815137878287977
"812",0.162692416808947
"813",0.111275666884366
"814",0.456697638034654
"815",0.837459577029724
"816",0.875442395579904
"817",0.239000216276187
"818",0.141934799448219
"819",0.776389872781555
"820",0
"821",0.0016635734961572
"822",0
"823",0
"824",0.156219202139971
"825",0
"826",0.0249102455629355
"827",0.976016001906473
"828",0.08345152438741
"829",0.133875604658202
"830",0.0422610306112863
"831",0.135984502064774
"832",1.42870553609953e-07
"833",0.0158981919929109
"834",0.71704346430068
"835",0.2976637647733
"836",0.456751124001294
"837",0.0489814615770033
"838",0.0899062411538015
"839",0.0432837106859735
"840",0.0022528835241773
"841",0.238482123328592
"842",0.597114184666151
"843",0.779430238366186
"844",0.231932239499686
"845",0.363788383508939
"846",0
"847",2.90123480795046e-12
"848",0.106953124847208
"849",0.271904982008015
"850",0.19734847276006
"851",0.486922914746339
"852",0.990965899757142
"853",0.6579697561251
"854",0.0652368034726727
"855",8.73745520379998e-14
"856",0.157394378174231
"857",0.832619762165177
"858",0.45932184541547
"859",0.694861749962739
"860",0.099845698912899
"861",0.11964748717873
"862",0.190850946647297
"863",0.41476304585365
"864",0.808901181401998
"865",0.0136468605902149
"866",0.145349900042688
"867",0.10794328571409
"868",0.259323131699214
"869",0.195594099029896
"870",0.420908750203983
"871",0
"872",0.149587474146158
"873",0.519088441529904
"874",0.165171754063931
"875",0.00605095630366126
"876",0.436875216764408
"877",1.22379884004431e-12
"878",0.281468861152638
"879",0.0164024142491196
"880",0.000143574106392541
"881",0.217230193185574
"882",0.154126568408281
"883",0.100657942543449
"884",0.710963335471097
"885",0
"886",0.753296921207691
"887",0.556382263195501
"888",0.0362470953180676
"889",0.101551009120984
"890",0.732393805450369
"891",0.114069598379765
"892",0.0438140403748358
"893",0.0015010290445524
"894",0.192276286077128
"895",0.270290854960294
"896",0.13457797622766
"897",0.0406307440101834
"898",0.74073233620262
"899",0.703289108294503
"900",0.122145914957845
"901",0.000220618093954683
"902",0.99976230691998
"903",0.000171687927168485
"904",0.200921130064386
"905",0
"906",0.191818857911279
"907",0.800471401250055
"908",0.0952371243715862
"909",0.213836405288263
"910",0.313006013655524
"911",0.53150694306796
"912",0.561769396582986
"913",0
"914",0.647716189605393
"915",0.521434906564699
"916",0.921902682819579
"917",0.592163562629666
"918",0
"919",1.74113945483612e-10
"920",0
"921",1.11122279367049e-06
"922",0.0456374448806739
"923",0.224032743030123
"924",0.604009374976883
"925",0.0807954148658806
"926",0.954868305807761
"927",0.858672275836227
"928",0.233577564943312
"929",0
"930",0.944482524913391
"931",0.245596809700729
"932",0.632081123194833
"933",0.889040781774567
"934",0.170505272001684
"935",0.000336691377143539
"936",0.0165354040125411
"937",0.413344570137878
"938",0.295703808518486
"939",0.215927453801072
"940",0.239587541875546
"941",0.210248027210132
"942",0.816233684575145
"943",0.504516770926643
"944",0.00228622809051726
"945",0.362054048888429
"946",0.450351610737496
"947",0.609057866858125
"948",0.713534767452854
"949",0.509580340860671
"950",0.23553571686285
"951",0.0395473230616671
"952",0.904268178190136
"953",0.826146107531719
"954",0.44557266086944
"955",0.00234438356117883
"956",0.181566904325584
"957",0.00723603499551084
"958",0.0316557655670229
"959",0.454426452619977
"960",0.00204895137807559
"961",0.605063389635731
"962",0
"963",0.128756312105534
"964",0.00593600557763641
"965",0.776787363031134
"966",0.806469193455983
"967",0.0313183914192351
"968",0.00214048898971686
"969",0.628359707823245
"970",0.0685911187454337
"971",0.115036376623125
"972",0.0588443918804409
"973",0.032723051621771
"974",0
"975",0.954693086934003
"976",0.00349750777744084
"977",0.221800470059783
"978",0.172005021366429
"979",0
"980",0
"981",0.64544581308191
"982",7.47335526796178e-12
"983",0.0980831594233353
"984",2.604916282678e-12
"985",6.92281770275915e-06
"986",0
"987",2.88657986402541e-15
"988",0.0650868725386214
"989",0.0271439639594148
"990",0.791226258044894
"991",0.00471302420179909
"992",0.0392076597916945
"993",1.73354894564826e-05
"994",0.000387283934821014
"995",0.696773934732736
"996",7.09321490433013e-13
"997",0.920769607549111
"998",0.384362113880658
"999",1.02940673381013e-05
"1000",0.471902974330378
"1001",0.00320537063726045
"1002",0.00566271254397699
"1003",0.000616319730675885
"1004",0.0886037121670606
"1005",0.00368238598401627
"1006",0.888563655332871
"1007",0.655432025811731
"1008",0.42751271656709
"1009",0.461646504956796
"1010",0.0144765808673663
"1011",8.59396150751923e-05
"1012",0.000894660193506258
"1013",0.460662541932491
"1014",0.0257375543664509
"1015",1.92091509365611e-09
"1016",0.0510811626435546
"1017",2.18586357048078e-06
"1018",0.00152041392799762
"1019",0.000291496527939139
"1020",0.766300866281188
"1021",0.00146176508333429
"1022",0.57332086136913
"1023",0.685467233691992
"1024",1.6015831192373e-06
"1025",0.293426817791797
"1026",0.0350407970925719
"1027",0.124500550814031
"1028",0.373657006518986
"1029",5.75341996267298e-11
"1030",3.94917432089414e-12
"1031",0.375854768904128
"1032",0.349730656628934
"1033",0.399711287145679
"1034",0.221111434401775
"1035",0.514504215451393
"1036",0
"1037",0.334929695749975
"1038",0.0129304063282264
"1039",0.631471824210175
"1040",0.0850747143188082
"1041",0
"1042",0.00167797565428995
"1043",0.00503739789230595
"1044",4.13866279025399e-08
"1045",7.510355440421e-05
"1046",0.0202669525534407
"1047",2.05891625970622e-09
"1048",7.94008385684997e-06
"1049",0.429031976743208
"1050",0.971933625484664
"1051",0.449597901565288
"1052",0
"1053",3.43145289960489e-10
"1054",0.00537684560665252
"1055",0.612922551952781
"1056",0.463085309650112
"1057",0.00617093751459752
"1058",0.0801686976694957
"1059",0.143299889422923
"1060",8.90160467559298e-09
"1061",0
"1062",0.586747801941416
"1063",0.456728551519073
"1064",0
"1065",0.865740956026153
"1066",0.603393163266273
"1067",0.733144030993365
"1068",0
"1069",0
"1070",0.109510394434643
"1071",0.213533204079
"1072",0
"1073",1.554227069267e-08
"1074",0.468661482832672
"1075",0
"1076",0.426827350971309
"1077",0.304883884181077
"1078",0.299058844698928
"1079",0.477590683837142
"1080",0
"1081",0.23932723463053
"1082",0.451321199221634
"1083",0.567077691429297
"1084",0.232748469269321
"1085",0.647620983350994
"1086",0
"1087",0.347826852513642
"1088",0.988492821375358
"1089",0.526372999361602
"1090",0.211213180243476
"1091",0.724478031971416
"1092",0.945613344311995
"1093",0.127911261257298
"1094",0.787075413986745
"1095",0.0450249729812764
"1096",0.32739077071087
"1097",0.934351673044214
"1098",0.786302279751956
"1099",0.00144924751496311
"1100",0.381649327786191
"1101",0.0339544816591451
"1102",0.46020545370191
"1103",0.917082881394353
"1104",0.161415153945615
"1105",0.275913050800974
"1106",0.650148608118516
"1107",0.638572708688734
"1108",0
"1109",2.74644973430327e-10
"1110",0.00159186204932837
"1111",1.23727661449635e-09
"1112",0.0234706597862036
"1113",0.00523554994971298
"1114",0.0309985144389529
"1115",5.79213765838915e-09
"1116",0.818406790650668
"1117",0.542639831287227
"1118",0.185524517031367
"1119",0.795453853464523
"1120",0.176481336682443
"1121",0.294298292836521
"1122",0.0182169785772325
"1123",0.343915735426756
"1124",0.0270411684687475
"1125",0.638571295852506
"1126",0
"1127",0.0654733392639355
"1128",0.0273058146263345
"1129",0.0400196783257389
"1130",0.0156706068481508
"1131",0.318337511084578
"1132",0.903689999604002
"1133",0.0943207748637919
"1134",4.50863013268243e-06
"1135",0.906685201208137
"1136",0.597867165129681
"1137",0.0320827173885837
"1138",0.644632799594359
"1139",0.0187934162070057
"1140",0.995001628111512
"1141",5.05340225442907e-07
"1142",0.76082559650375
"1143",1.58431046060059e-11
"1144",0.000256615676681005
"1145",0.535387088724096
"1146",0.000369654838977773
"1147",0.00532314990057625
"1148",0.104432070182977
"1149",0.015190609845719
"1150",0.492985826334279
"1151",0.48458697098042
"1152",0.269516414701094
"1153",0.794566044687086
"1154",0.885169062307975
"1155",0.017102558273259
"1156",0.00195291592206193
"1157",0.424310629522916
"1158",0.123246271658768
"1159",0.024509786614569
"1160",0.189286896449443
"1161",0.450717979497751
"1162",0.0105140241798037
"1163",0.27719046819212
"1164",0.405308916930891
"1165",0
"1166",0.908506180169095
"1167",4.8412585051949e-10
"1168",0.5153274677476
"1169",8.88178419700125e-16
"1170",0.00704228595861112
"1171",0.376451879829293
"1172",0.0888910553789201
"1173",0.502631597256839
"1174",0.577666533065499
"1175",0.41805645714005
"1176",0.0946056762776115
"1177",2.88657986402541e-15
"1178",0.30658323270116
"1179",0.0001062173366011
"1180",0.830837037250582
"1181",0.77495042472998
"1182",0.750145727889038
"1183",0.024453778267949
"1184",0.0924804299089502
"1185",0.0162482991076002
"1186",0.0301511120816431
"1187",0.863895143092901
"1188",0.116243122431123
"1189",0.019813800301995
"1190",0.960860539343094
"1191",0.409743571141038
"1192",0.744505278260557
"1193",0.0506881835812922
"1194",0.00556810369658089
"1195",0.0801321884646149
"1196",0.616656128965451
"1197",0.890642050943455
"1198",0.000139669217570804
"1199",1.42330591756945e-12
"1200",0.0974676727940356
"1201",0.0200006796242992
"1202",1.4939473838016e-06
"1203",0.715207484045895
"1204",0.876230461883152
"1205",0.129773672128118
"1206",0.299977164849147
"1207",0.672352572979515
"1208",0.110467811996864
"1209",0
"1210",3.77392561645706e-10
"1211",5.26501875430796e-09
"1212",0
"1213",0.448518425299585
"1214",0.736116325283442
"1215",0.928217319617112
"1216",0.907397073045813
"1217",6.33637586844316e-12
"1218",0.694505522684408
"1219",0.651741191739613
"1220",0.0469767100936447
"1221",0.37549995415875
"1222",9.3614700119482e-05
"1223",0.225821124660578
"1224",0.0850352668895578
"1225",0.545761355802573
"1226",0
"1227",1.304757413223e-10
"1228",2.0616965897835e-06
"1229",0.0110456495434021
"1230",0.000212781488058034
"1231",0.0114299941202055
"1232",0.318149225836724
"1233",0.00190099695052626
"1234",2.95741209299649e-12
"1235",0.197806912278772
"1236",1.18127729820117e-13
"1237",0.00487913858985745
"1238",0.0422343160686878
"1239",0
"1240",0.57367441520075
"1241",0.165243016924362
"1242",0.349250078016676
"1243",0.685499732427697
"1244",0
"1245",0.30079400461278
"1246",0.0140552905336021
"1247",0
"1248",0.217130005602634
"1249",0.000113067106075393
"1250",0.00012521437064561
"1251",1.24045884675184e-09
"1252",0.461764930580276
"1253",0.860661974122319
"1254",0.199736048364769
"1255",1.16633610254269e-05
"1256",6.64459712806931e-08
"1257",0.927327273564355
"1258",0
"1259",4.59380439910007e-07
"1260",0.149388330086367
"1261",0.0127194635062905
"1262",1.96509475358653e-14
"1263",4.32986979603811e-15
"1264",0.00426997767073567
"1265",0
"1266",0.0291181901807331
"1267",0.00238934519773448
"1268",2.95319324550292e-14
"1269",4.78848516394237e-10
"1270",7.01169601269314e-08
"1271",0.255355414159985
"1272",0.27214212728954
"1273",0.242849592771305
"1274",0.903725309351355
"1275",0.0770413380983722
"1276",3.68105546044717e-12
"1277",0.486145869438306
"1278",0.530575984826405
"1279",1.94544380605066e-12
"1280",0.274618874080366
"1281",0.586785118954049
"1282",1.62505564560433e-11
"1283",0.0299611644983582
"1284",0.469016781973247
"1285",0.20334526407997
"1286",0.32677891739788
"1287",0.23839718572681
"1288",0.0648726566063068
"1289",0.164047210544832
"1290",0.0773188933114215
"1291",0
"1292",5.22226706323181e-11
"1293",1.81410442223751e-13
"1294",0.532299382588788
"1295",0
"1296",0.180303782988176
"1297",0.193767412101569
"1298",0.893935486109453
"1299",0
"1300",0.317679540918851
"1301",0.406514297287155
"1302",0
"1303",0
"1304",0.119120126395258
"1305",0
"1306",0.128032168989723
"1307",1.99897407793248e-06
"1308",0
"1309",0.0825134565954139
"1310",0.340430526656978
"1311",0.0287549508538317
"1312",0.97954728965636
"1313",0
"1314",0.411243179767574
"1315",0.369538418143861
"1316",1.46391998523399e-08
"1317",0
"1318",0.266535258871356
"1319",0.407852234969803
"1320",0.180003750309079
"1321",0.402474623932707
"1322",2.73644751302982e-09
"1323",0.323275419259261
"1324",0
"1325",0.916338579400048
"1326",0
"1327",0.0141390749668981
"1328",0.151710896704159
"1329",0.819779098036878
"1330",0
"1331",0.00877139977151642
"1332",0.119704783847798
"1333",0.0236268115360706
"1334",0.00470236416164094
"1335",0.00121289116681811
"1336",6.29021834508414e-07
"1337",4.7999382246644e-12
"1338",3.41948691584548e-14
"1339",6.21365758846082e-09
"1340",0.036314847657905
"1341",0
"1342",5.65285046105757e-07
"1343",0.00186810959178285
"1344",0.0773819837581001
"1345",1.7189048010513e-05
"1346",0.00889440180538148
"1347",0.0816741308726504
"1348",0.0402164142546803
"1349",0.0344427211775171
"1350",0.187808406683107
"1351",0.337541093729512
"1352",0.00389898481011963
"1353",0.52439680806822
"1354",0.946968432921264
"1355",0.313418623992112
"1356",0.0709996297942044
"1357",0.31955358719496
"1358",0.0530332743477776
"1359",0.969680195142839
"1360",0.200516976166848
"1361",0.150969696584611
"1362",0.0214181853720541
"1363",0.000158216020621937
"1364",0
"1365",1.32338584535319e-13
"1366",1.51170486129004e-07
"1367",0.00611409867871782
"1368",0.00570381658253327
"1369",9.91941509376204e-07
"1370",2.55805376880858e-10
"1371",0.499019165846195
"1372",0.000426518948484
"1373",0.0721169516737834
"1374",0.294610869134998
"1375",0.00240450501540512
"1376",0.00135701388620812
"1377",0.0434753999569957
"1378",0.442748591578203
"1379",0.334386303137492
"1380",0.105604723633998
"1381",0.493016103419237
"1382",0.0351285523432908
"1383",0.331931882327925
"1384",0.415015220445458
"1385",2.54816612255127e-10
"1386",0.609736395978704
"1387",0.0452879288319065
"1388",5.51815569014291e-05
"1389",0.00045908926155902
"1390",0.00382348176743241
"1391",2.76656475506343e-12
"1392",9.05688191110698e-10
"1393",0.0015972748580988
"1394",0.574342451907072
"1395",0.244814400124483
"1396",0.0741719656802775
"1397",0.150379723355558
"1398",0.170350756470154
"1399",0.207648308761317
"1400",0.00369034033471416
"1401",0.380472169677962
"1402",0.195274413760543
"1403",0.794520641273258
"1404",0.015549771765446
"1405",4.66293670342566e-15
"1406",0.350129539940969
"1407",1.7528219705687e-06
"1408",0.643520367288388
"1409",0.546029739643252
"1410",8.73838412740469e-09
"1411",0
"1412",0.0627871783963656
"1413",0.0321200687214964
"1414",0.0459870072823841
"1415",0.257945681006246
"1416",0.0035549948627247
"1417",0.721385891165878
"1418",0
"1419",0
"1420",0.662094722935907
"1421",1.1738016525431e-07
"1422",0
"1423",0.00578981027451009
"1424",1.77383903807726e-05
"1425",0.173635197690559
"1426",7.14018844050202e-11
"1427",0
"1428",0.0043925898327809
"1429",4.2854608750531e-14
"1430",0.0844368330555243
"1431",0.624649261329907
"1432",0
"1433",0
"1434",0.218402122874129
"1435",6.06514838352723e-13
"1436",0.023312571589942
"1437",3.43246098211125e-10
"1438",4.04505603457395e-08
"1439",0.00825656186362222
"1440",4.62507809828594e-12
"1441",4.44724408977804e-05
"1442",0.0180836813546403
"1443",1.01754067949322e-06
"1444",0.000475136059867931
"1445",0.000885703225044332
"1446",2.26485497023532e-13
"1447",0.000838657930821496
"1448",0.0197400962894599
"1449",5.18112913683311e-08
"1450",0.000218295884002129
"1451",1.25083488011768e-08
"1452",0.0235747857241119
"1453",1.42119604105151e-05
"1454",5.31845745221915e-08
"1455",0.0293379129989543
"1456",7.99524132455431e-07
"1457",0.694685250504326
"1458",0.338541898135209
"1459",0
"1460",0.000163373898102726
"1461",0.303261725145312
"1462",0.288353615220696
"1463",0.024334596685864
"1464",0.0363872337161548
"1465",1.19242369599482e-05
"1466",0.512034813718973
"1467",0
"1468",0.701645548920088
"1469",0.00440107826589631
"1470",0.000442866015599175
"1471",0.00271291836738685
"1472",2.23145681658155e-05
"1473",0.640559998040318
"1474",0.00137883344972289
"1475",0
"1476",6.40072550517345e-09
"1477",2.21260275892199e-05
"1478",0.127979813424763
"1479",0.339929610841917
"1480",0.0708671658868115
"1481",1.63337951231135e-06
"1482",3.55515526018202e-06
"1483",0.0265616353813979
"1484",0.308251787220871
"1485",0.269461873227974
"1486",0.00318182466089212
"1487",0.000100223654236675
"1488",0.772729148856995
"1489",0.101486576256673
"1490",0.0102334219056367
"1491",7.14620835617907e-07
"1492",0.00255199475012902
"1493",0.00459765902099918
"1494",0.000986857068605573
"1495",0.407166877976841
"1496",1.21269265629387e-07
"1497",1.50809933571194e-05
"1498",0.0657589245972561
"1499",0.245134046572681
"1500",0.000565225650308032
"1501",0.138380360294071
"1502",0
"1503",0.962842975399987
"1504",2.95393150495649e-07
"1505",0
"1506",4.70485415304811e-06
"1507",0.587621226068813
"1508",0.0464997691418101
"1509",0.038423819232263
"1510",1.68785261411841e-06
"1511",0.0380870991357457
"1512",0.0117342667973409
"1513",4.21090697977355e-07
"1514",0.0990509760856304
"1515",4.63470309441938e-06
"1516",1.25007747026062e-05
"1517",0.00311248262092967
"1518",0.111905566318995
"1519",1.43773737326658e-06
"1520",0
"1521",0.0259412505137074
"1522",4.10060874145302e-11
"1523",2.11925055282336e-08
"1524",8.10573830278827e-13
"1525",1.15159573649271e-05
"1526",0.0759853441746745
"1527",0.318010161258512
"1528",0.0031732431343976
"1529",3.23698656767846e-09
"1530",3.42962257781076e-05
"1531",0.00185315537844988
"1532",0.161067265540677
"1533",2.4990577234929e-05
"1534",0.0556902214667411
"1535",0.745447367547287
"1536",2.45477016491691e-08
"1537",0.116978401023025
"1538",1.11445880301986e-08
"1539",0.00240598162401229
"1540",5.18451948039456e-12
"1541",0.483006807983958
"1542",1.90724114279561e-09
"1543",0
"1544",0
"1545",0.22961100407853
"1546",3.09082048843834e-09
"1547",0.169411735327528
"1548",9.10382880192628e-15
"1549",0.00175480053922528
"1550",0.517134776457682
"1551",5.89274664036799e-05
"1552",0.110783412570821
"1553",0.000580013288454251
"1554",6.95665747230123e-13
"1555",0.366989457062702
"1556",0.0766928796712315
"1557",0.147640546747793
"1558",9.5693439461364e-07
"1559",0
"1560",0.000637628486889641
"1561",0.0658798350282349
"1562",0.0782044139975713
"1563",0.47443842953379
"1564",0.668379441390969
"1565",0.00120262753648936
"1566",0.34802522525332
"1567",0.0913331694562896
"1568",0.615272911831205
"1569",0.936774246192667
"1570",0.658850449500267
"1571",0.128376918240768
"1572",3.99021926611454e-11
"1573",0
"1574",0.00230002040550226
"1575",0.534290383681006
"1576",1.96018874465409e-08
"1577",0.00142275714736428
"1578",0
"1579",0.00489986878326965
"1580",0.102004744172027
"1581",0.870382373474038
"1582",0
"1583",0
"1584",0
"1585",0.0135821259457239
"1586",0.0636106002804847
"1587",0
"1588",0.00723270135172571
"1589",6.21724893790088e-15
"1590",0.0251077694575017
"1591",0
"1592",4.03662577808106e-08
"1593",0
"1594",0
"1595",0.9356474799265
"1596",5.24679123468097e-05
"1597",0.368704199320623
"1598",0
"1599",0.133637300015962
"1600",0.815307924825804
"1601",4.7264338554065e-07
"1602",0.887961882711314
"1603",0.000852154622820955
"1604",0
"1605",6.97089719281507e-10
"1606",0.00133672972322441
"1607",0.192308470398617
"1608",0.949129246234428
"1609",0.890117889401163
"1610",0.761434779903192
"1611",0.0075763428109209
"1612",0.31893649838684
"1613",0
"1614",0.671201538137342
"1615",0.903499758159466
"1616",0.794047080894366
"1617",0.981074692603454
"1618",0.544962368091992
"1619",0.605118225105413
"1620",0.469636461118107
"1621",0.56161661192896
"1622",0.473355962513247
"1623",0.528175682179271
"1624",0.979472330462476
"1625",0.748069287760102
"1626",0.407243607471301
"1627",0
"1628",0.355912528206913
"1629",0.998145919156434
"1630",0.909524242899519
"1631",0.376332518631825
"1632",0.391506914077021
"1633",0.356188225127343
"1634",0.548607173883062
"1635",0.119479515461961
"1636",0.460652568126479
"1637",0.269968361128471
"1638",0.00639968053551021
"1639",0.570120234521956
"1640",0
"1641",0.0362795117162704
"1642",0.723455642252493
"1643",0.314950566775987
"1644",0.468747357070722
"1645",0.911758774683009
"1646",0.242067645933413
"1647",0.392968648574503
"1648",0.776983156976067
"1649",0.97155930343553
"1650",0.595088506579514
"1651",0.484717650254982
"1652",0.678112312446349
"1653",0.668738285114611
"1654",0.125444569570086
"1655",0.560172846350407
"1656",0.52314229351604
"1657",0.0589037200640918
"1658",0.926044843934103
"1659",0.414154516870325
"1660",0.802390795534842
"1661",0.11451083475411
"1662",0.0990218043313627
"1663",0.415944662497509
"1664",0.184150782858346
"1665",0.238283825234083
"1666",0.668764402396473
"1667",0.0253595381561885
"1668",0.736674251702644
"1669",0.319391663680507
"1670",0.0139984360571807
"1671",0.282116822233101
"1672",0.0103458987160798
"1673",0.130063623450769
"1674",0.0146134365290834
"1675",0.0226278734649582
"1676",0.992107584273125
"1677",0.365993764771366
"1678",0.0345312194917093
"1679",0.0695410612246645
"1680",0.37370325067531
"1681",0.626074670021061
"1682",0.21707050703399
"1683",0.157257845741708
"1684",0.583566783647829
"1685",0.0143617077244286
"1686",0.661035544829964
"1687",0.246116348469303
"1688",0.576572239367875
"1689",0.680944690376961
"1690",0.0639265723507214
"1691",0.316513166398116
"1692",0.262485833483402
"1693",0.936537895910149
"1694",0.893492464569671
"1695",0.923105583070676
"1696",0.324880439640144
"1697",0.458933113089718
"1698",0.0347143253881332
"1699",0.00730327812344811
"1700",0.000130718820768538
"1701",0.521013365610052
"1702",0.123692520544699
"1703",0.464298950817912
"1704",0.33817849718272
"1705",0.367670709282929
"1706",0.000281656678682074
"1707",0.00265541839508576
"1708",0.688514511311068
"1709",0.182270390117116
"1710",0.208219256145559
"1711",0.948419581007817
"1712",0.00502788905123841
"1713",0.0313404093267443
"1714",0.326954016728717
"1715",0.24830490814005
"1716",0.199813366941662
"1717",0.875016499903646
"1718",0.513304980423858
"1719",0.487445981271504
"1720",0.0499368605067423
"1721",0.000746055023259196
"1722",0.00391526860393066
"1723",0.799288173864649
"1724",5.26215086618098e-05
"1725",6.01180216719399e-11
"1726",0.00089060449483247
"1727",0.0924029928492909
"1728",0.191530343751868
"1729",0.609146503185172
"1730",0.780689046945675
"1731",0
"1732",0.0633127580435801
"1733",0.0459632735717327
"1734",0.247511202408621
"1735",6.88043037054831e-05
"1736",0
"1737",1.98972642417861e-06
"1738",0.716785104251248
"1739",0.0348311474619205
"1740",0.924853057217881
"1741",0.201429460450695
"1742",5.55111512312578e-16
"1743",4.41593582589661e-07
"1744",0.17193438159801
"1745",0.602332642839428
"1746",0
"1747",0.916383765134029
"1748",0.850905535544092
"1749",1.0308531805947e-11
"1750",0.00643522670356711
"1751",0
"1752",0
"1753",0.0525275189313164
"1754",9.2759380568852e-05
"1755",0.348111515842098
"1756",0.218800551356018
"1757",0.216772397492087
"1758",0.805936859491502
"1759",0
"1760",0
"1761",0
"1762",0.203863185595063
"1763",0
"1764",0.878582325941622
"1765",0.896061240095496
"1766",0.540035706755513
"1767",1.531000034527e-07
"1768",0.000206395446040508
"1769",0.881057804607461
"1770",0.712096658709884
"1771",0.459586534914767
"1772",0.11694567442672
"1773",0.716979768111567
"1774",0.0923191042912388
"1775",0.162483675797128
"1776",0.285752697741296
"1777",1.44641184597338e-05
"1778",0.0136881297126201
"1779",0.0357895679918493
"1780",0.00663204006213958
"1781",0.120706604631336
"1782",0.0223498700725082
"1783",0.0995482647379172
"1784",0.13433666806371
"1785",0.0968222183282361
"1786",0.674830675653806
"1787",0.367126155462903
"1788",2.74076842768922e-05
"1789",8.91108548062292e-08
"1790",0.316147633644042
"1791",0.0185605472888173
"1792",0.082217202680664
"1793",0.0351712447824561
"1794",0.89843236613136
"1795",0.561306747974154
"1796",0.0629686265615348
"1797",0.0340455758713661
"1798",0.375573579134334
"1799",0.18965768015594
"1800",1.95781579837018e-08
"1801",0.752461702543043
"1802",0.101652037464203
"1803",0.0265452335863868
"1804",0.106496958285101
"1805",0
"1806",0.0203207795790008
"1807",0.60196006713045
"1808",0.0024828549558592
"1809",0.314875180265858
"1810",0.951786036449524
"1811",0.324356840833382
"1812",0.0543330207973322
"1813",0
"1814",0.0883028065168737
"1815",6.75607207889506e-06
"1816",0.0659149921880855
"1817",0.7368313694393
"1818",0.0578900086552367
"1819",0.375069820122434
"1820",0
"1821",0
"1822",1.37057798443863e-09
"1823",0.0664983731148954
"1824",0.539971836550086
"1825",0.0513977358525284
"1826",0.18623169582895
"1827",0.04289630159692
"1828",0.00754380348428174
"1829",0.794283791094833
"1830",0.689292270735123
"1831",0.377830869643388
"1832",0.286418609874411
"1833",0.795360658567444
"1834",0.481337456355255
"1835",0
"1836",0.0150205732016122
"1837",0.000279432067268437
"1838",0
"1839",0.0506441286499927
"1840",0.259466222405386
"1841",0.11190242778779
"1842",0.653899166282844
"1843",0.125097412960485
"1844",0.458686490413423
"1845",0
"1846",0.000315433958644085
"1847",0.203959814221334
"1848",8.99154225830756e-06
"1849",0
"1850",0.316995289369634
"1851",0.137664013745239
"1852",0.432781980033235
"1853",0.211995515808094
"1854",0.786912055728606
"1855",0.097282758140204
"1856",0.273535034391032
"1857",0.530494263730046
"1858",0.486041514257645
"1859",0.267276151217324
"1860",0.681823070738913
"1861",0.571156302415887
"1862",0.478951637649557
"1863",0.627470284288433
"1864",0.385837671254024
"1865",0.383715707104972
"1866",0.557474934488044
"1867",0.348261008888211
"1868",1.12009379549249e-09
"1869",0.00258226568470121
"1870",0.846535093048559
"1871",0.236732205310092
"1872",0.584509772433121
"1873",0.588349662565755
"1874",0.151421526651509
"1875",0.215559289169543
"1876",0.572867564328929
"1877",0.574895584198995
"1878",0.0602076840672006
"1879",0.568311990725882
"1880",0.356134262475749
"1881",0.77995916713726
"1882",0.852742855773023
"1883",0.915005120540368
"1884",0.164338165436475
"1885",0.637770865569606
"1886",0.773065293924406
"1887",0.329867332607798
"1888",0.500504036637038
"1889",0.300299485798761
"1890",0.928538343609807
"1891",0.396052415933844
"1892",0.393574222617119
"1893",0.555464510936358
"1894",2.3094970380555e-11
"1895",0.159320541467697
"1896",0.94009229536739
"1897",0.993821689146808
"1898",0.70621713568809
"1899",4.03999056430848e-12
"1900",6.98857391956409e-07
"1901",0.476565907738819
"1902",0.0637191988012489
"1903",0.227569164399038
"1904",0.0256688517052104
"1905",0.379325283080514
"1906",0.0960930859566882
"1907",0.0427747768600968
"1908",0.575016599541069
"1909",0.717876444372775
"1910",0.218732915310501
"1911",0.735951718322034
"1912",0.928258016787107
"1913",0.0716429482260333
"1914",0.0197881872465557
"1915",0.943000894231144
"1916",0.0608874645830345
"1917",0.578308997147823
"1918",0.0243138596855715
"1919",0.838543056840739
"1920",0.0865801330047761
"1921",1.45360593672983e-07
"1922",0.654403050294885
"1923",0.563116434853106
"1924",0.653149404224074
"1925",0.0017883028162089
"1926",0.450239938224344
"1927",0.640324507270766
"1928",0.967367570193335
"1929",0.856602036675594
"1930",0.168490144205897
"1931",0.0162838946493412
"1932",0.610749249501121
"1933",0.0138975555105237
"1934",0.684503650375591
"1935",0.284888873141387
"1936",0.0382682010804287
"1937",0.000904133214787439
"1938",0.0390236447536288
"1939",0.925725093594615
"1940",0.485208413340409
"1941",0.314512928122928
"1942",0.127283735484972
"1943",0.325894713372083
"1944",0.0230395936720299
"1945",0.096456466059555
"1946",0.00391357987337748
"1947",0.319599479177973
"1948",0.163613567157745
"1949",0.000981259912648969
"1950",0.174890317622475
"1951",0
"1952",0.165568081214835
"1953",8.54871728961371e-15
"1954",0.824865917326349
"1955",0.35202993140618
"1956",0
"1957",0.00913064206056236
"1958",0.173035902248323
"1959",0.0119278139272133
"1960",0.075542010979648
"1961",0
"1962",0
"1963",0.700166150062473
"1964",0.00689678431423157
"1965",0.068369543910397
"1966",2.33368879776208e-13
"1967",2.1094237467878e-15
"1968",0
"1969",0.900115708145181
"1970",0.051645242238031
"1971",0
"1972",0.329286481353386
"1973",0.119352323061293
"1974",0.276871599450314
"1975",0.0914337046591474
"1976",0.0806150155719481
"1977",0.513818568252039
"1978",0.965213050298837
"1979",0
"1980",1.29347643706978e-11
"1981",7.49631267646933e-05
"1982",0.00249691977553612
"1983",0
"1984",0.0243089136110746
"1985",0.000361268350886568
"1986",0.0721351496769951
"1987",0.530610423183042
"1988",0.594579230156979
"1989",0.391040013421758
"1990",0.490982968686041
"1991",0.259712388954322
"1992",0.961051751872788
"1993",0.752531369351901
"1994",0.0504890366808141
"1995",0.902798466871293
"1996",0.115708945574969
"1997",0.139740841875041
"1998",4.08562073062058e-14
"1999",0.827802861669062
"2000",0.00468866518299083
"2001",0.594001204572104
"2002",0.535672869662152
"2003",0.258564150947437
"2004",0.045778150607333
"2005",0.598525970145852
"2006",0.0966562169493814
"2007",0.585849194607406
"2008",0.00132121071433211
"2009",0.021751096769589
"2010",0.271171601317426
"2011",0.222515925031859
"2012",0
"2013",0
"2014",0
"2015",0.0198119732075182
"2016",0.413872692904824
"2017",0
"2018",0.209271133652437
"2019",0.965864539599276
"2020",0.488612940995446
"2021",0.372936262416171
"2022",0.0428512580400218
"2023",0.210372057329495
"2024",0.00148291887385432
"2025",0.708948993353175
"2026",0.277512524241265
"2027",0.432580160469875
"2028",0.0388169930785307
"2029",0.87472233523143
"2030",0.411060634505892
"2031",0.0443931784829878
"2032",8.96740459666034e-11
"2033",0.956333517464799
"2034",0.532001668115173
"2035",0.386417403964246
"2036",0.0133807489913963
"2037",0.490976947296064
"2038",0.349707438916899
"2039",0.00926788984890758
"2040",0.0913459967751435
"2041",0.53090514933242
"2042",0.270490079832679
"2043",0.694238841776303
"2044",0.00024389428332916
"2045",0.0803251664948439
"2046",0.126744034205188
"2047",0.412403143077657
"2048",0.0478136578406911
"2049",0.126620090862713
"2050",0.91225855892251
"2051",0.440745124651361
"2052",0.745892112794749
"2053",0.99775796424153
"2054",0.660532977837073
"2055",0.120895514044394
"2056",0.716646262061386
"2057",0.726938952630019
"2058",0.556641409706248
"2059",0.684037933059302
"2060",0.464675057306278
"2061",0.108001979340414
"2062",2.35191976616367e-06
"2063",0.0791945878342998
"2064",0.113770341198505
"2065",0.486744291264265
"2066",0.945228667405572
"2067",0.974906980831247
"2068",0
"2069",0.339492668558578
"2070",2.27080687587033e-10
"2071",0.0885406909951574
"2072",0.88044328809825
"2073",0.28529497240226
"2074",0.301722108687839
"2075",0.318835616408733
"2076",6.32827124036339e-15
"2077",0.38395920641294
"2078",0.0757376689493543
"2079",0.896195426956447
"2080",0.0644179070691132
"2081",0.890444563754187
"2082",0.00717610168330729
"2083",0.0126686023165088
"2084",0.113278882352966
"2085",0.850229742817377
"2086",0.0785551870818355
"2087",0.349275257329142
"2088",0.912820738826252
"2089",0.0333967437624045
"2090",0.128520882124746
"2091",0.673165840203572
"2092",0.136234891905133
"2093",0.00012452626300874
"2094",0.657702169485312
"2095",0.679077583904865
"2096",0.255094147626901
"2097",0.580942080710876
"2098",0.00254622713954133
"2099",0.000843172231773659
"2100",0.290803504639452
"2101",0.0222183840266839
"2102",4.85167461761193e-14
"2103",1.2424406571343e-06
"2104",0.000650584517746244
"2105",6.29698914889065e-06
"2106",0.383042037722925
"2107",0.967018616748868
"2108",0.00116142380957318
"2109",0.536131061185123
"2110",0.0180073104069245
"2111",0.465266360461569
"2112",0.00013985621887469
"2113",3.21964677141295e-15
"2114",0.0072322345656286
"2115",0.109568703275521
"2116",0.0858281925431423
"2117",0.426481447942418
"2118",0.675136516651603
"2119",0.713993991342601
"2120",0.821670540717369
"2121",0.833151899591437
"2122",0.666644842377245
"2123",0.194701750011989
"2124",0.013437428682785
"2125",0
"2126",0.000168538145195796
"2127",6.69098110250843e-12
"2128",0.996175552769032
"2129",0.139248308767529
"2130",0.0328624313724508
"2131",0.306916119680066
"2132",0.00746042351282639
"2133",0.278022546574637
"2134",5.61579305280446e-09
"2135",0.00795066530732469
"2136",0.000576071277441303
"2137",0.37498477458378
"2138",0.652915716923779
"2139",0.213198687775775
"2140",1.01988405498687e-08
"2141",0.00215914597697076
"2142",0.508977245032313
"2143",0.00537218173867871
"2144",0.0963656141949676
"2145",0
"2146",0
"2147",2.74231286889748e-06
"2148",0
"2149",0.516715205947176
"2150",0.0642592817356993
"2151",0.181396051949586
"2152",0.00634701058053144
"2153",0.109945864601152
"2154",0.0929211536437856
"2155",0.367447843973941
"2156",5.6341216391087e-05
"2157",0.0705834305553941
"2158",0.000898246581390594
"2159",0.464133743818618
"2160",0.0888618342967139
"2161",0.394315476417422
"2162",0.824423800844251
"2163",0.487200036662751
"2164",0.122029448257619
"2165",0.401073391092559
"2166",0.00447628635903152
"2167",0.0472012598216744
"2168",0.683794839318749
"2169",0
"2170",0.000949365391336388
"2171",4.65059762921882e-07
"2172",0.000370002918967938
"2173",0.542301161553663
"2174",0.00987390148552003
"2175",0.468996090191964
"2176",0.130368460209809
"2177",5.98770730407816e-05
"2178",0.666549247402333
"2179",0
"2180",2.51165504407957e-05
"2181",0.779452957124046
"2182",0.11843386096855
"2183",0.865147726554616
"2184",0.98798342059813
"2185",0.889228942409842
"2186",0.376644882481789
"2187",0.0195294369800275
"2188",0.141658548245803
"2189",0
"2190",0.757921193576137
"2191",0.168429136128436
"2192",0.907838059503497
"2193",0
"2194",3.03275364044175e-07
"2195",0.0107917620109731
"2196",0.254616380901846
"2197",0
"2198",0.469371961380395
"2199",0.36085984391932
"2200",0.22038335246153
"2201",0.00104781699428136
"2202",0.0886589058465532
"2203",0.151727305906875
"2204",3.54307694294675e-11
"2205",0.00444179758870189
"2206",0.568637274485511
"2207",0.637816503052293
"2208",0.913648610518092
"2209",0.508956270580952
"2210",0.0520246572288685
"2211",0.643390275680717
"2212",0.00546711896724705
"2213",0.237095328222745
"2214",0.399214023797454
"2215",0.192097259675237
"2216",0.0940901403819121
"2217",0.872096756958274
"2218",0.64219232012432
"2219",0.359082769279406
"2220",0.362536933667662
"2221",0.282850129324891
"2222",0.870651659514346
"2223",0.125165382160136
"2224",0.763586959062131
"2225",7.66501201354686e-06
"2226",0.150265082127685
"2227",0.106925328717829
"2228",0.559330800863242
"2229",0.790561146390515
"2230",0.0922910335222878
"2231",0
"2232",0.117876647555996
"2233",0.739925126565718
"2234",0.144933390605256
"2235",0.572841743962413
"2236",0.110740943275449
"2237",0.169453117619538
"2238",0.396037049972383
"2239",0.471799594148488
"2240",0.866125497843914
"2241",0.973797444790125
"2242",0.00589850863821262
"2243",0.448558144040622
"2244",0.90648299400803
"2245",0.0651431539007048
"2246",0.235262314709775
"2247",0.67012230647204
"2248",0.538694603136108
"2249",0.0423272415323099
"2250",0.534678276536185
"2251",0.539735528177566
"2252",0.182377363630968
"2253",0.917751668679248
"2254",0.323214929817592
"2255",0.792285413694204
"2256",0.303088606537878
"2257",0.251865312977483
"2258",0.082393447695118
"2259",0
"2260",0.014277169562844
"2261",1.72221149563612e-08
"2262",0.300035562816293
"2263",0.288755961652403
"2264",0.167414453139892
"2265",0
"2266",0.0092895046213789
"2267",0.386170680750074
"2268",1.48073935335447e-08
"2269",0.198041205011642
"2270",0.717597072925169
"2271",0.343863816044389
"2272",0.00252168572749667
"2273",0.19666077480919
"2274",0
"2275",0.100352959667463
"2276",0.112471492689231
"2277",0.0146963820715393
"2278",0.119613657758132
"2279",0.501436814130424
"2280",1.43662053364579e-08
"2281",0.761405084556046
"2282",0.320235567237195
"2283",0.942934323982624
"2284",0.231357711885833
"2285",0.0028683937986056
"2286",0.537175898585298
"2287",0.138478469809909
"2288",0.883434054253207
"2289",0.128560173866093
"2290",0.613444350079547
"2291",0.0232902253173337
"2292",0.00503841304573505
"2293",0
"2294",0.196551085295326
"2295",0.664157360947554
"2296",0.0311461883594053
"2297",0.635385128226788
"2298",0.000645953837167035
"2299",0
"2300",0.0304719237954021
"2301",0.0224002856794353
"2302",0.287343613066183
"2303",0.0642608173887039
"2304",0.604705225409352
"2305",0.101905928658305
"2306",3.11877724593623e-05
"2307",0.00851687427979053
"2308",0.105310624402036
"2309",0.388041977076464
"2310",1.22124532708767e-15
"2311",0.163187656065333
"2312",0.0537234340521073
"2313",0.268522177661417
"2314",0.00011335459027606
"2315",1.87281412600271e-10
"2316",0
"2317",0
"2318",3.55635899970119e-05
"2319",0.0540793388868906
"2320",0.256279269362824
"2321",0.50363170320702
"2322",0.0138260517025613
"2323",0.864756921531261
"2324",7.39852623610204e-13
"2325",0.000604142873911084
"2326",0.0312214870361303
"2327",0.644264364129889
"2328",0.0809912947428509
"2329",0.0873038001861385
"2330",0.100346046511421
"2331",0.0133498979742587
"2332",0
"2333",0.00213378636709494
"2334",0.168681282379171
"2335",0.0950070078137307
"2336",0.0449512010847631
"2337",0.130930007509083
"2338",0.070811682086465
"2339",0.372377571951899
"2340",0.0230532081702963
"2341",0.00494318950024997
"2342",0.401348731997747
"2343",0.169695997907903
"2344",0.0262102401673762
"2345",0.0123428763528018
"2346",0.061791371185811
"2347",0.434468016949572
"2348",3.07074481920022e-06
"2349",0.210167271710174
"2350",0.67046009410683
"2351",0.000206574405025806
"2352",0.00220011524019659
"2353",3.63116181567591e-08
"2354",0.0116975602636059
"2355",0
"2356",0
"2357",1.98729921407903e-14
"2358",1.4761747380021e-10
"2359",0.000946142258410054
"2360",0.0761529611723002
"2361",0.235115667033151
"2362",9.18462258947539e-06
"2363",0.0566614916412043
"2364",0.476665680319207
"2365",0.738767164457376
"2366",0.128787442108659
"2367",0.000765625418062132
"2368",0.0312236068062641
"2369",0.0194725645043484
"2370",0.575813559617956
"2371",0.170438996018531
"2372",0.276847089870637
"2373",0.151705653128325
"2374",0.00716421892413699
"2375",0.0128718584533296
"2376",0.61249929441681
"2377",0.821726725986409
"2378",0.586771102111909
"2379",0.799587142140217
"2380",0.475986753049006
"2381",0.753713612670553
"2382",0.109456859336009
"2383",0.500626399617363
"2384",0.174796709526984
"2385",0.496872647897188
"2386",0.0228560718276644
"2387",0.262272554007953
"2388",0.650812088334047
"2389",0.060983001677543
"2390",0.238151138998195
"2391",0.492578385715386
"2392",0.163629214685431
"2393",0.18499528668748
"2394",0.758030620420295
"2395",0
"2396",0.0584781869120493
"2397",0.771926234681014
"2398",0.680119202644664
"2399",0.0791190703926198
"2400",0.166922269873498
"2401",0.0437025906821755
"2402",0.371923354825705
"2403",0.0673882494991372
"2404",0.00200921038033686
"2405",0.00259363444537253
"2406",0.067786384926147
"2407",1.783018177548e-13
"2408",0.00117168424497127
"2409",0.62646317300138
"2410",0.167167109492921
"2411",0.300253461638617
"2412",0.100213452767976
"2413",0
"2414",0.726417282572061
"2415",0
"2416",0.531136712531895
"2417",0.537297382366247
"2418",0.534265355107403
"2419",0.123341708293037
"2420",2.4980018054066e-14
"2421",2.33146835171283e-15
"2422",0.0463742844543262
"2423",0.587992559652641
"2424",0.700661540452209
"2425",0.748421497025889
"2426",0.914461056146322
"2427",0.391084640040699
"2428",0.286933732907961
"2429",0.13676381876173
"2430",0.903898275823916
"2431",0.316350765262018
"2432",0.0199126112597093
"2433",0.0311825836750494
"2434",0
"2435",0.0351719506714587
"2436",0.1731574191969
"2437",0.191418471266083
"2438",0.15862034956478
"2439",0.608208598985086
"2440",0.105139015827331
"2441",0.327934336194602
"2442",0
"2443",0.13542008130164
"2444",0.336882668554028
"2445",0.991610656239009
"2446",0.0488729994736865
"2447",0
"2448",1.01984594413906e-05
"2449",0.0170523943564745
"2450",0.514470165723944
"2451",0.869828708112963
"2452",0.272726667059588
"2453",0.557149242345094
"2454",0.0603104876833863
"2455",0.703875459843511
"2456",0.00220048582676025
"2457",0.190942034436893
"2458",0.964313940181954
"2459",0.245607521898156
"2460",0.164386654778374
"2461",0.608164583926357
"2462",0.748321811594352
"2463",4.44089209850063e-16
"2464",0.689985180234239
"2465",0.11707208657439
"2466",0.40274911074846
"2467",0.00203331891635572
"2468",0.492736542628532
"2469",0.538642869520805
"2470",0.260478973617271
"2471",0.712105408274787
"2472",0.250118590723962
"2473",0.459622976025138
"2474",0.36910026844955
"2475",0.0002621838770408
"2476",0.484025837792118
"2477",0.572851690544648
"2478",0.764393115910278
"2479",0.189973049985669
"2480",0.214263067042726
"2481",0.00124228376805868
"2482",0.000771337710965381
"2483",0.0664752086358891
"2484",0.418098338950203
"2485",0.564346085300659
"2486",0.256552886384385
"2487",0.239589804651836
"2488",0.343315274311141
"2489",0.966911970669737
"2490",0
"2491",0
"2492",0.565199920163697
"2493",2.76431218060313e-06
"2494",0.128686864698967
"2495",0.00541842109438007
"2496",0.855386677085942
"2497",0.381085925314272
"2498",0.025952301788065
"2499",0.105969568822159
"2500",0.55962660640816
"2501",0.336874946822231
"2502",0.183398954583271
"2503",0.317732526020241
"2504",0.040396918009154
"2505",0.600815672517328
"2506",0.261712201146695
"2507",1.17224452367282e-10
"2508",4.19948741114951e-07
"2509",0.805974563859798
"2510",0.429599199210154
"2511",0.74025287941015
"2512",0.00260205687529214
"2513",0.69829545736353
"2514",0.827767519206307
"2515",0.112837559130306
"2516",0.540169647476539
"2517",0.671893232278127
"2518",0.354847272566431
"2519",0.140647881640567
"2520",0.0109797163514979
"2521",0.389779749209537
"2522",0.000101917189493372
"2523",0.00363555647088543
"2524",0.445331216378137
"2525",0.726662208070033
"2526",1.72537207854262e-08
"2527",0.0644531139284626
"2528",0.00971416086984966
"2529",0.0102008069584609
"2530",0
"2531",7.98444643734797e-11
"2532",0.806517722854313
"2533",0.371814418549438
"2534",0.161299609471287
"2535",0.000255048905361654
"2536",0.322215519417199
"2537",0.389219599514823
"2538",0
"2539",0.138810568736876
"2540",0.00662073703156296
"2541",0.0301086140442486
"2542",0.572366408832475
"2543",0.103442636716342
"2544",0.319349903849373
"2545",0.220652979394552
"2546",3.11040082578984e-12
"2547",0.419956565670955
"2548",0.899885999401804
"2549",0.496791956853315
"2550",0.0871643763817831
"2551",0.503369101300135
"2552",0
"2553",0.0395998403125741
"2554",0.0554879401176938
"2555",0.423774775084267
"2556",0.869842541223471
"2557",0.197627766356143
"2558",0.6944613675257
"2559",0.331438154930314
"2560",0.70398240475904
"2561",0.44775264892262
"2562",0.502743858364729
"2563",0.067222163995646
"2564",0.00524121800040955
"2565",0.115243876558344
"2566",0.0698362983742478
"2567",0.353964280694519
"2568",0.0222253942546946
"2569",2.79830159044536e-10
"2570",0.176679118467084
"2571",0.529208183980937
"2572",0.0939038521485094
"2573",0.237260912782646
"2574",0.262586108908346
"2575",0.214973929021728
"2576",0.00738847135304377
"2577",0.148478996204929
"2578",0
"2579",0.535802934086911
"2580",0.3389759718339
"2581",2.25652940777366e-10
"2582",9.24931428114562e-07
"2583",0.681019388655695
"2584",0.894384062777838
"2585",0.58326579793475
"2586",0.103417169668517
"2587",0.21001923004305
"2588",0.0180040292366501
"2589",0.518019213860385
"2590",0.381475510713953
"2591",0.236896040825511
"2592",0.0146860577692773
"2593",2.22044604925031e-16
"2594",7.86037901434611e-14
"2595",0.161838209505581
"2596",2.22208108580091e-08
"2597",0.198125830611989
"2598",0.315107784306975
"2599",0.0112018812504597
"2600",0.024799964049498
"2601",0.0312727670840102
"2602",0.226705846478433
"2603",0.174310484262374
"2604",0.0376428362818947
"2605",0.54839438944131
"2606",0.0781753784594805
"2607",0.243797373321391
"2608",0
"2609",0
"2610",0.127397834056026
"2611",0.0433719030530925
"2612",0.0456113942442145
"2613",0.179641069007117
"2614",1.52680237563985e-07
"2615",0.150800409575775
"2616",0.141889903785279
"2617",0.438608664090459
"2618",0.57117058905957
"2619",1.94289029309402e-14
"2620",0.102390198701358
"2621",0.76731874730478
"2622",0.0504089786079456
"2623",0.813241147404602
"2624",0.453746606798941
"2625",0.00808161380587347
"2626",0.000295037062202685
"2627",0.662724303739041
"2628",0.175079717093778
"2629",0.875556373425112
"2630",0.0501711478560674
"2631",0.0806397619320172
"2632",0.00664531807725377
"2633",0.104677158657518
"2634",0.45942727777603
"2635",0.214457912793738
"2636",0.0127194919393382
"2637",0.44570883146758
"2638",0.0756977204743082
"2639",0.347302064801095
"2640",0.00623289241220415
"2641",0.11997546308089
"2642",0.305688844593939
"2643",0.40588598696886
"2644",0.174450749434546
"2645",0.629866631015245
"2646",2.73084100060883e-05
"2647",3.40505401652536e-13
"2648",0.0358744862452254
"2649",0.906488970701752
"2650",8.60067572716616e-12
"2651",0.00797148268232928
"2652",0.000314139500609323
"2653",0.0337580039343724
"2654",0.0600452353028792
"2655",0.199356844574484
"2656",0.863005509278434
"2657",0.677361149904581
"2658",0
"2659",0.468404447341285
"2660",3.55212041946995e-06
"2661",0.792620673468227
"2662",0.900306128480958
"2663",5.7453882651437e-08
"2664",0.120412083741014
"2665",0.0122554380350525
"2666",0.00603518562009675
"2667",0.187572095981236
"2668",0.526779050085872
"2669",0.834269216957949
"2670",0.740866656763477
"2671",0.00959680565564192
"2672",0.148568400607984
"2673",0.392850179909098
"2674",0.0473413169402093
"2675",0.440591783346013
"2676",0.0585983387275593
"2677",0.339385504959731
"2678",0.0596148408290553
"2679",0.0587174675105487
"2680",0.0695309736111923
"2681",0.176151610127727
"2682",0.103869355537358
"2683",0.0997864736745994
"2684",0.412799480131573
"2685",0.0189306355363691
"2686",0.820256115043644
"2687",0.396431648931854
"2688",0.170008503787979
"2689",0.534821797089214
"2690",0.513615572971774
"2691",0.605152903262714
"2692",0.135015475254403
"2693",6.73329306467574e-05
"2694",2.98506830513912e-05
"2695",0
"2696",0.23078017091128
"2697",0.0090591139932702
"2698",0
"2699",0
"2700",1.96651472883502e-10
"2701",0.0154793291761878
"2702",0.170259959513261
"2703",0.00557234322616462
"2704",0.30795954134113
"2705",0.220515565337945
"2706",0.257339729157547
"2707",0.199145404924172
"2708",0.740323601433216
"2709",0.164209851717408
"2710",8.43624435010737e-05
"2711",0.318417051227393
"2712",0.232480001688755
"2713",0.011052205670849
"2714",0.964644277856515
"2715",0.557455117775856
"2716",3.97559762888022e-12
"2717",0.0453506755143385
"2718",4.04807476428459e-09
"2719",0.407859836375415
"2720",0.794329641818422
"2721",1.6199097618852e-10
"2722",0.0140665697582314
"2723",0.385974824846476
"2724",0.944643049706811
"2725",0.916262600663508
"2726",0.716865421099658
"2727",5.85166028854722e-06
"2728",0.578317050207078
"2729",0.505801851694329
"2730",0.186640855527073
"2731",0.0003008724356659
"2732",0.815621714631651
"2733",0.379047003360887
"2734",0.169432858620924
"2735",0.127285322762212
"2736",0.851860530112444
"2737",0.0169757380567109
"2738",0.419033046059693
"2739",0.175900512102912
"2740",0.118925628493609
"2741",0.114938855983833
"2742",0.149149346835924
"2743",1.05814200979104e-06
"2744",0.102191209433029
"2745",0.254060707078352
"2746",0.224119799413586
"2747",1.69823194950958e-07
"2748",0.0997110471593063
"2749",0
"2750",0.342795858004569
"2751",0.000163347927230828
"2752",0.563790880092475
"2753",6.66133814775094e-16
"2754",0.163147037950088
"2755",0.484994194955521
"2756",1.18370926394107e-08
"2757",0.0157449821227221
"2758",0.17352043802617
"2759",0.33955516416696
"2760",0.098847605056766
"2761",0.373256046404189
"2762",0.00301292275539089
"2763",0.0104163950463911
"2764",1.49501562796139e-07
"2765",0.00169926584976476
"2766",0.800264547405607
"2767",0.855173896239854
"2768",0.786740422564046
"2769",0.216898847167605
"2770",0.763385746452547
"2771",0.0250680281336085
"2772",0.718435091030037
"2773",0.0368573711360963
"2774",0.595093939280907
"2775",0.649914712668685
"2776",0.170575835650763
"2777",0.562109508859612
"2778",0.371099944449979
"2779",0.754382255941511
"2780",0.29672662817214
"2781",0.000947576647139847
"2782",0.00670963539340308
"2783",0.226387751145892
"2784",0.337112824868405
"2785",0.999412041663969
"2786",0.997882593955009
"2787",4.71311203255054e-05
"2788",0.697238389605655
"2789",0.0121799335525297
"2790",0.0663730308938563
"2791",0.784438205966112
"2792",6.54576628980053e-05
"2793",0.161830829935282
"2794",0.417608341786296
"2795",0.178886106159033
"2796",0.00025544031041691
"2797",7.30187240960412e-06
"2798",9.18955355871942e-05
"2799",0.000214912205382611
"2800",0.909869817110344
"2801",0.540635102882688
"2802",0.806652448105453
"2803",5.31941156434179e-06
"2804",0.48210432735145
"2805",0.146766354899405
"2806",0.0568946115167536
"2807",0.717497100069319
"2808",0.336154083774451
"2809",0.431675131531175
"2810",0.921481001221974
"2811",0.785678936480728
"2812",1.88254136546107e-06
"2813",2.26675065495563e-07
"2814",0.796998420967659
"2815",0
"2816",0.363198821405193
"2817",0.655177407182745
"2818",0.880819460034619
"2819",0.935217390393464
"2820",4.04783788710006e-08
"2821",0.277914126729735
"2822",0.638487637396796
"2823",0.800887610992075
"2824",0.251298306412917
"2825",0
"2826",2.77261135372964e-05
"2827",0.21739697380059
"2828",0.00488390228607893
"2829",0.0663221787171269
"2830",0.0636553149616572
"2831",3.40967404416359e-05
"2832",0.00668952709034898
"2833",0.131345637622007
"2834",0.916232937645184
"2835",0.285106208717078
"2836",0.210065377974373
"2837",0.884826279357609
"2838",0.605176050781554
"2839",3.64617464188033e-06
"2840",0.489905996143987
"2841",0.1690412197908
"2842",0.00268488168412817
"2843",0.102869939986337
"2844",0.218804689094355
"2845",0.0419996006245106
"2846",0.275141223434975
"2847",0.913975516733559
"2848",0.171204130695374
"2849",1.21643155548412e-08
"2850",0.110342436585225
"2851",0.0325004598542196
"2852",0.340329500030692
"2853",0.389696516139503
"2854",0.0507380430695785
"2855",0.107973145130546
"2856",0.21974346786439
"2857",0.233612090798947
"2858",0.315240813934408
"2859",1.37713426662245e-07
"2860",0.22230324282703
"2861",0.0870169037113528
"2862",0.0092528235217707
"2863",0.000132800476546957
"2864",0.0835803846986766
"2865",0.631339801487569
"2866",0.506127168570783
"2867",0.0642882808596659
"2868",0.237896863741166
"2869",0.000127784036895506
"2870",0.0175597523383543
"2871",0.126686255269502
"2872",0.22918254413386
"2873",0.116058382855188
"2874",0.239803340189108
"2875",0.0359658880785195
"2876",0.701562862126817
"2877",0.0175359654697951
"2878",0.0486059153396502
"2879",0.688015843712577
"2880",0.118286540825595
"2881",0.612600863217731
"2882",0.000288173619807375
"2883",0.88933661516019
"2884",0.812970362449624
"2885",0.647935398657334
"2886",0.348958206579086
"2887",0.0307312516595452
"2888",0.00123201526472461
"2889",0.673288948240999
"2890",0.0150096834602022
"2891",0.574599043257079
"2892",0.0117961387633227
"2893",5.15942669698788e-08
"2894",0.214104080332639
"2895",0.00269046702539066
"2896",2.7627899967797e-11
"2897",8.45902015100819e-10
"2898",0
"2899",0.172872917561656
"2900",0.0109379732241524
"2901",0.0195816293607312
"2902",0.000636875118878111
"2903",0.202235105804295
"2904",0.000639744942097842
"2905",0.000331152385278366
"2906",0.48930985978874
"2907",1.09455900876299e-06
"2908",0.00144760090342766
"2909",0.725402499998153
"2910",0.0183922645714727
"2911",2.55435579652463e-05
"2912",3.25149906998945e-11
"2913",0
"2914",0.267137937789984
"2915",0.566975247458201
"2916",0.0786483372970682
"2917",0
"2918",6.0053678647698e-06
"2919",0
"2920",0
"2921",2.46290289851459e-06
"2922",0.000687592850088015
"2923",0.594769183747706
"2924",4.97000630208522e-05
"2925",0.000224426615912821
"2926",2.11450856824058e-11
"2927",3.43258754753606e-11
"2928",0.493498564919954
"2929",0
"2930",0.00205198847791865
"2931",7.29638571783653e-13
"2932",2.06223926824123e-12
"2933",0.0534059915415416
"2934",0.0124204372947052
"2935",0.00236868531770895
"2936",0
"2937",1.24045218541369e-12
"2938",0.0445607788680737
"2939",0.877270686759157
"2940",0.0750761279391434
"2941",0
"2942",0
"2943",0.0271910575726688
"2944",0.205942257421053
"2945",0.0218525392571629
"2946",1.21652103781678e-05
"2947",9.71954283723875e-09
"2948",0
"2949",0.168436531780724
"2950",0.184567729483113
"2951",0
"2952",4.66264804543925e-11
"2953",0.606086900108806
"2954",7.83489939593096e-11
"2955",0.0144146502695304
"2956",0
"2957",7.84231782180456e-07
"2958",0.304824316138116
"2959",4.78949524485017e-07
"2960",7.30426830131137e-11
"2961",5.55111512312578e-15
"2962",1.33124622436753e-11
"2963",0.0146246789109906
"2964",4.43487927492825e-08
"2965",7.21644966006352e-15
"2966",0.189387588396845
"2967",0.572274169441684
"2968",0
"2969",3.34177130412172e-14
"2970",3.51073093833865e-05
"2971",0.0678960537482362
"2972",0.26052996348389
"2973",0.23482181169543
"2974",0
"2975",0
"2976",0.232105008464869
"2977",0.4187608148017
"2978",0.626477492655194
"2979",0.0189194792509055
"2980",0.00422323364069421
"2981",0.000626957937062245
"2982",0.199077048444238
"2983",0.00160805709092526
"2984",0.0476813578902917
"2985",0.127193020867288
"2986",0
"2987",0.112177647506185
"2988",0.00100093865162076
"2989",0.237403393059802
"2990",0.217047914149514
"2991",0.178923976586754
"2992",1.65312208366686e-13
"2993",0.68944509107222
"2994",6.97381608016912e-08
"2995",0
"2996",1.29725452602258e-10
"2997",0
"2998",0.094527594340729
"2999",0.0317725441747581
"3000",0.000540983233750181
"3001",0.0245227402568383
"3002",1.47644307890715e-09
"3003",0
"3004",0.96571360355728
"3005",0.531761114264587
"3006",0.053596606440344
"3007",0
"3008",0
"3009",0.716382782633459
"3010",0.00011919781347336
"3011",0.605379009954904
"3012",0.199514524949006
"3013",0.00255819421273473
"3014",0.0247744716841238
"3015",0
"3016",0.552932497154851
"3017",1.33319347783711e-07
"3018",0
"3019",0.525823895727248
"3020",1.6449952511266e-11
"3021",0
"3022",0.00442248066173878
"3023",0
"3024",0
"3025",0.180485427359043
"3026",7.47017156914609e-05
"3027",0.543524483650375
"3028",0.187205533915922
"3029",3.97977429015262e-05
"3030",1.91142657257615e-11
"3031",0
"3032",0.0379851582910908
"3033",0.0898318857087799
"3034",3.3882662231477e-09
"3035",0.000136869218708591
"3036",0.946131250042869
"3037",2.70621709486107e-08
"3038",0.000479659473311966
"3039",5.05665218586415e-08
"3040",5.67019305619532e-07
"3041",3.62866927767769e-05
"3042",0
"3043",1.15611314965847e-08
"3044",5.35875788187923e-11
"3045",1.54546119235377e-08
"3046",0.0486090278278107
"3047",0.129381354122244
"3048",0.148677327219516
"3049",0.157892414065621
"3050",0.0411357433782683
"3051",0.0515712621843357
"3052",0.298686570413837
"3053",0.0429393958984299
"3054",0.257063772517961
"3055",0.0286658722530275
"3056",0.000238509593211589
"3057",0.402864402108831
"3058",1.13313081140376e-09
"3059",0.000143561258301839
"3060",1.67022873309719e-09
"3061",7.46591910516514e-09
"3062",0.681662261531912
"3063",0.856528443802207
"3064",0.277147622444056
"3065",0.368115298858493
"3066",0.211360727365156
"3067",0.316788412490644
"3068",0.0330394566693027
"3069",0.222660186318294
"3070",0.107299572452906
"3071",0.0108066768934622
"3072",0.730075613761294
"3073",0.40721077467556
"3074",0.245185688503419
"3075",0.515988886426283
"3076",0.277724290409045
"3077",0.316185130279049
"3078",0.311670588999659
"3079",0.0283578944886524
"3080",0.800855355550704
"3081",0.651567848165926
"3082",8.75501640074106e-08
"3083",0
"3084",0
"3085",1.30895294603306e-13
"3086",0
"3087",0.000201105739123131
"3088",0
"3089",0
"3090",4.52016230001462e-08
"3091",1.53118850931833e-10
"3092",5.93204096954736e-09
"3093",4.42532586101274e-05
"3094",2.2101209751213e-12
"3095",5.01465535762691e-11
"3096",3.11004177966367e-09
"3097",1.88521431798705e-09
"3098",6.71243727268234e-10
