"","x"
"1",0.199603043185818
"2",0.904680287386332
"3",0.447570455550227
"4",0.599093130851018
"5",0.00010231908488223
"6",0.965475212105299
"7",0.296103620566003
"8",0.297404725021289
"9",0.763391984428172
"10",0.347826562798399
"11",0.35418342548545
"12",0.01423406148492
"13",0.930244151836598
"14",0.466564974556009
"15",0.602115174541103
"16",0.999254016741911
"17",0.325938494838239
"18",0.221706749202592
"19",0
"20",0.930786526670619
"21",0.257167713696377
"22",0.995303698948159
"23",0.629257379216511
"24",0.00727745711549621
"25",0.972431325427693
"26",0.999954477838258
"27",0.563311017888119
"28",0.771184909207021
"29",0.70162906285065
"30",0
"31",0
"32",0
"33",0
"34",0
"35",0
"36",0
"37",0
"38",0
"39",0
"40",1.71887324373898e-08
"41",3.39310901120715e-05
"42",0.122773493957733
"43",2.78665979180914e-14
"44",0
"45",0
"46",0
"47",0.00794414809367849
"48",0.361729654839878
"49",0.18371723669333
"50",0.643356117463747
"51",0.480728386595916
"52",0
"53",0.00233585870949005
"54",0.935072264507898
"55",0.00792529422835375
"56",4.38466896124368e-09
"57",0.00020815412981412
"58",0.5536049021673
"59",0.140446192977728
"60",1.29521429137469e-08
"61",3.62104723694578e-05
"62",0.844560696877097
"63",0.960644642911024
"64",0.0297844062575248
"65",0.194018096572377
"66",0.378970576832206
"67",0.0335699650289076
"68",0.397527297030431
"69",0.900661179997159
"70",0.107239185924109
"71",0.772006489612983
"72",0.777893131623963
"73",0.649509991576163
"74",0.380387150903792
"75",0.784347249123521
"76",0.541729943337956
"77",0.694700240597551
"78",0.00813131625702479
"79",0.457429161653966
"80",0.493351634284232
"81",0.103687826968792
"82",0.210103080441966
"83",0.162896466196836
"84",4.06194664648307e-06
"85",0.257263597434788
"86",0.794171597018183
"87",0.752607126978195
"88",0.245104095143796
"89",0.744759481274792
"90",0.745712319330946
"91",0.0020148615625768
"92",0.994715271942436
"93",0.00730226693485503
"94",0.193566045940462
"95",0.134630011390908
"96",0
"97",0.012940793215021
"98",0.437808850414418
"99",0.0110001891427252
"100",0.674245590566901
"101",0.00978501254501118
"102",0.193189024005944
"103",0.0713329978127148
"104",0.0375407258100839
"105",0.562658497708194
"106",0.82460895492478
"107",0.0016687633850978
"108",0.428174559568181
"109",0.082599084522464
"110",6.3486993440165e-12
"111",0.940464841280118
"112",0.955177098863733
"113",0.251631441590577
"114",0.856964392017863
"115",0.437404454738454
"116",0.0223878918447821
"117",0.512066642078904
"118",0.318441247464133
"119",0
"120",0.00194541326660491
"121",0.308670432348492
"122",0.297752220294406
"123",0.162140907024538
"124",0.68424711276595
"125",0.204117035764494
"126",1.8968885152626e-06
"127",0.541049628188927
"128",0.0923505222055747
"129",0.0495938561428486
"130",0.0517903261856024
"131",0.955671147652163
"132",0
"133",0.0939023086528219
"134",0.00340835592220934
"135",1.38836279850452e-06
"136",0.0248134412451894
"137",0
"138",0
"139",0.971362765315023
"140",0
"141",0
"142",0
"143",0.900952810787174
"144",0.10921721715668
"145",0.204621026138429
"146",0.319362470176058
"147",0.323129021161873
"148",0.037105575784406
"149",0.695765103979618
"150",0.151685370308551
"151",6.15762996147851e-12
"152",0.141227813500163
"153",0.993179353738744
"154",0.103845843002931
"155",0.373749436609056
"156",6.55135435900789e-08
"157",4.38438174654721e-12
"158",0.336761175157558
"159",0.852235446393623
"160",0.994938864419927
"161",1.26058210315749e-05
"162",7.21623610363542e-05
"163",0.146847809298951
"164",0.00211482266860197
"165",0.000292324233165719
"166",0.000139302049940504
"167",0.274063275630344
"168",0.0470297097539009
"169",0.459848400005233
"170",0.284385705652201
"171",0.0232029009477462
"172",0.757502021780734
"173",1.22180536576977e-07
"174",2.34157286449488e-07
"175",0.0458709102473656
"176",0.169274567333897
"177",3.10862446895044e-15
"178",0
"179",4.55191440096314e-15
"180",3.33733041202322e-13
"181",0.531012514231561
"182",0.003701721857711
"183",0.0740100332915818
"184",0.000911345857768642
"185",4.41039000065313e-06
"186",4.52524116123509e-06
"187",0
"188",0.173926065389574
"189",0.0878397503434413
"190",0
"191",2.83054579774955e-10
"192",1.43426068355268e-07
"193",0
"194",2.02060590481778e-14
"195",0
"196",0
"197",1.01645599714928e-08
"198",0.0456496662346831
"199",0.0419609855977883
"200",0
"201",2.34479102800833e-13
"202",3.36532373412801e-07
"203",1.21769994088083e-08
"204",0
"205",0.0390795572222058
"206",0.0209198078768936
"207",0.00930203991752154
"208",0.513733280219626
"209",0.0280066462750918
"210",0
"211",0
"212",0.246465262567545
"213",0.852121546616538
"214",0.0375950930164998
"215",0
"216",2.08361039533145e-09
"217",0
"218",0
"219",0.205252886089343
"220",0.000458241223577405
"221",0.361835927605268
"222",0.490689549555206
"223",1.48192054216789e-06
"224",0.064390126776708
"225",0.373264541177609
"226",0.00710708857645581
"227",0
"228",0.594063686387036
"229",1.27101158486909e-08
"230",0
"231",0
"232",0.0250494010172244
"233",0.468165596882387
"234",0.230359381498443
"235",0.702715522125543
"236",0.197000283328405
"237",0.164253644396923
"238",0
"239",0
"240",0
"241",0
"242",1.68344227446937e-09
"243",0.334963767353064
"244",0.00046266840139797
"245",0.00366248398116564
"246",0.262900237982016
"247",0.533628625803217
"248",0.0169098951017529
"249",1.3644994023565e-08
"250",0.513504556970967
"251",0.0137437940131993
"252",2.79153367088725e-11
"253",0.647861503742384
"254",0.000639093487726838
"255",0.0011451634776366
"256",0.005980266880939
"257",0.0754772650406311
"258",0
"259",0.0462684537343856
"260",0.778037373228167
"261",0
"262",0
"263",0
"264",0
"265",0
"266",0.0568111947684014
"267",1.42566491945217e-09
"268",0.0185267706461215
"269",0.388294290168405
"270",0.251286987716748
"271",0
"272",0.454037028086657
"273",0.126717498785455
"274",0.766822139299479
"275",5.55111512312578e-16
"276",0.410481687988353
"277",0
"278",0.355685389885225
"279",0.626186693936548
"280",0.147978382071494
"281",0.000807991945903308
"282",3.18198268067782e-07
"283",0.0524916286786636
"284",0.449857093476875
"285",0.376882613789467
"286",0.0998775511171611
"287",0.0489943042435824
"288",0.322052640097788
"289",0.454062617606437
"290",0.000271825332653686
"291",8.89089264100029e-07
"292",0.389007353723575
"293",0.135233826867236
"294",0.180245398864148
"295",0.975938873124825
"296",0.0611656331937809
"297",0.613562154727519
"298",2.17008160330323e-08
"299",0.00398655275412496
"300",0.749102371174056
"301",0.00832560311121722
"302",0.000696749584421119
"303",0.227774908256998
"304",0
"305",1.2277060446042e-07
"306",0.228847721834067
"307",0.0463572662990146
"308",0.34276625166818
"309",0.0432781376952206
"310",0.164065245899701
"311",0.744510595969312
"312",0.577274751722908
"313",0.934952404807508
"314",0.25250874548359
"315",0.0783817758127732
"316",0.390192260298642
"317",0.163555296803524
"318",0.000242763435914117
"319",0.0267127639069096
"320",0.316446742175121
"321",0.461237225887678
"322",0.0101914854589231
"323",0.300432820821562
"324",0.480537347671486
"325",0.831835603324622
"326",0.114900275090569
"327",0.411284806291599
"328",0
"329",0.0476980098457694
"330",0.93630916372889
"331",0.273594504105336
"332",0.661836804792977
"333",0.11035497570328
"334",0
"335",4.10526279637224e-10
"336",0.612616463548036
"337",6.5130217067999e-05
"338",0.000843783469180126
"339",0.545222986493369
"340",0.377951302077765
"341",0.0121221151586226
"342",0
"343",0.000473091587530616
"344",0
"345",0.388460439572601
"346",0.0215898684268377
"347",0.113209407588756
"348",0.000801686113797495
"349",0
"350",5.54796839136174e-07
"351",0.00500168143289526
"352",0.247344416424505
"353",0.0025175538181138
"354",0.206966279547209
"355",0.000212613296984299
"356",4.38095704380359e-07
"357",0.00346027345307465
"358",0.661215122259818
"359",0
"360",0
"361",0.0832424707018362
"362",8.82963120172331e-05
"363",0
"364",5.47339951140202e-14
"365",0
"366",0
"367",0.00135443319625872
"368",0.00169114524281011
"369",0
"370",6.78722703491008e-05
"371",0.222914092018089
"372",0.521083304470286
"373",0.0521453254836193
"374",0.0161107796967555
"375",0.0234916230302157
"376",0.186584923525034
"377",0.261153047546006
"378",0.00305120746576093
"379",0.288663065335856
"380",0.130003467845665
"381",1.11606918584695e-06
"382",0.000211916123862399
"383",0
"384",4.4486858641335e-11
"385",0.856430614994547
"386",0.798742108400153
"387",0.511319643273663
"388",0.214522711698557
"389",0.000748192634315137
"390",0.429828154663533
"391",0.00312804557346702
"392",0.675352704358856
"393",0
"394",0.036638423761463
"395",0.696152215707156
"396",0.786692944661739
"397",0.0868062966936021
"398",0.392051138775661
"399",1.8647566376484e-05
"400",0.289481223335267
"401",0.212115549060207
"402",0
"403",0.0626669636632869
"404",0
"405",7.45417175762597e-08
"406",0
"407",0
"408",0.000529876061786339
"409",0.0011171572578802
"410",0.0039809047567726
"411",0.0593228852034791
"412",0.000526145613230278
"413",0.00277044388133818
"414",0.0562286809883226
"415",0.0180892039066766
"416",0.00168553643239622
"417",0.000146571832756015
"418",0.00720335185084564
"419",8.00120494504064e-06
"420",0
"421",0.0136689338780049
"422",0.00323955029191625
"423",7.61128811432865e-05
"424",0.0184629488684335
"425",0.00169228394879761
"426",0.00505983740412908
"427",0.942044893024426
"428",0.253449014651824
"429",0.440698256386963
"430",0
"431",4.23725468995384e-05
"432",0.000125411968755262
"433",9.06561059554889e-09
"434",0.340122971321632
"435",0.894288588114305
"436",9.78618651737984e-05
"437",0.00867462451890955
"438",0.000393256802910025
"439",0.00434655472979706
"440",2.19955223479396e-07
"441",0.0642957373015693
"442",0.157087817475585
"443",2.1077323330343e-05
"444",4.30952837183751e-05
"445",0.201153104464384
"446",6.89174301971018e-06
"447",0.00851571806340023
"448",0.0464785584435292
"449",0.0240572279059497
"450",0
"451",1.64230571099155e-05
"452",6.20645757010152e-11
"453",9.71878133526616e-12
"454",0.0564558872347481
"455",0
"456",0.0222991896400173
"457",0.336375228363065
"458",0.321306883695956
"459",0.161624653122646
"460",0.000148596711595284
"461",9.39022629986574e-07
"462",0.00142079093867686
"463",0.714422722690895
"464",0.00155989044616978
"465",0.040569960144931
"466",2.77590371466907e-07
"467",0.00477123257422052
"468",0.342061842660251
"469",0.00585026038101333
"470",0.422417361895826
"471",9.54295455979359e-06
"472",0.00459296701692813
"473",3.98213902196298e-05
"474",0.00300844846098358
"475",0.0790354656431848
"476",0.0847246976923106
"477",8.88178419700125e-16
"478",0
"479",0.036691767228504
"480",6.2066099315583e-07
"481",3.85048634743423e-06
"482",0.243258115081828
"483",0.00345399061497864
"484",3.00138613962275e-09
"485",0.0160301313163262
"486",0.00290458582489417
"487",0.0801545427021189
"488",0.000685006102398078
"489",0.0163790913774139
"490",0.117084449500149
"491",0.0325239482878875
"492",0.00211530584561781
"493",1.26412436074474e-09
"494",3.5678127119354e-12
"495",0.00167272801653928
"496",0.0497116141057897
"497",0.0754119571079315
"498",0.328165507369477
"499",0.188181797572796
"500",0.313838428538311
"501",0.00154828736412882
"502",0.216745558375703
"503",0.024496578406504
"504",0.000438377412678159
"505",0
"506",0.392420241763231
"507",0.00464922021623893
"508",0.00358755595315852
"509",0.0373666951065856
"510",0.133743090115594
"511",4.17776924166446e-13
"512",0.11341005747753
"513",0.351512463479663
"514",0.292363848619763
"515",0.165563950868912
"516",0.0553460296988044
"517",0.0440010326979376
"518",0.0224283891320275
"519",0.52958910159065
"520",0.406226224626675
"521",0.0026941854671948
"522",0.00322228745008302
"523",0.111067702285816
"524",0.00475064878697018
"525",0.0170377792196013
"526",0.0426672672321688
"527",0.21411157535783
"528",0.0275496733255588
"529",0.0482280581878297
"530",0.000876859521716677
"531",4.72565479214815e-06
"532",0.0133000594826057
"533",0.158826749147658
"534",0.000259529917233325
"535",4.41290254249438e-06
"536",0.00283565281594733
"537",0.0762546634766349
"538",0.0328725113278989
"539",0.00244447983832419
"540",0.224933159065058
"541",0.093238217014203
"542",0.228907036350995
"543",0.129797147324959
"544",0.182947166964422
"545",6.40457217587764e-05
"546",0.202311491096562
"547",0.0754228263519463
"548",0.0609570157515462
"549",0.00126123807781731
"550",0.515041643383255
"551",0.441253216724064
"552",0.15314281927788
"553",0.423297884851107
"554",0.307322266125428
"555",0.0619641396412244
"556",7.19956057659843e-07
"557",0.141253766177235
"558",0.0630731744035283
"559",0.00813098175882143
"560",0.190965040044297
"561",0.157939581040647
"562",0.0477279729953696
"563",0.198380885424686
"564",0
"565",0.18846269467968
"566",1.68753899743024e-14
"567",0.0397635823041986
"568",0.165379719256387
"569",0.0157660119098132
"570",0.0302408704484419
"571",0.721753261212317
"572",0.0620032652932749
"573",0.949264998500574
"574",0.103672759649259
"575",0.041080950113923
"576",0.581980292818713
"577",8.22870327432668e-10
"578",9.24796382623105e-05
"579",0.00363153988942744
"580",0.177163487196929
"581",0.00905180564753583
"582",0.168561807390557
"583",0.0821912576861645
"584",0.0325152048109744
"585",0.116736472332689
"586",0.993874432469918
"587",0.482533532719
"588",0
"589",0.179093885495653
"590",0.0434657272232011
"591",0
"592",0.0304884989933398
"593",0.0995203873056975
"594",0.0524703344739347
"595",0.102795279952582
"596",0.104930929808107
"597",0.400404383326949
"598",0.292585753905196
"599",0
"600",0.0819791611487237
"601",0.0226385029521549
"602",0.00191414999616224
"603",0.00550196135806302
"604",0.00187231097747609
"605",0.550049762627771
"606",0.065977539529834
"607",0.0239883273046868
"608",0.0397798051385817
"609",0.514756650345345
"610",0.0012744845313194
"611",0.554851958791212
"612",0.251858515921385
"613",0
"614",0.00399010148909951
"615",0.000296546087010907
"616",1.4661705183272e-10
"617",0.0559905921856699
"618",0.245824494676374
"619",0.0168254441620714
"620",0.0119350036800223
"621",6.42880315648853e-09
"622",0.138973346737992
"623",0.0551147404913973
"624",0.0411262518094075
"625",0
"626",0
"627",1.55530240597557e-06
"628",0.0052310294896144
"629",0.869353211126137
"630",0.0220216257690338
"631",1.87405646556726e-13
"632",0.00127340548309574
"633",7.45481454345054e-12
"634",3.33066907387547e-16
"635",1.35603190800637e-05
"636",0.000923376107792695
"637",0
"638",0
"639",0.0748630630958614
"640",0.0876630119853583
"641",0.0401114416439459
"642",0.563196512779502
"643",0.140731763893518
"644",4.92856206789627e-05
"645",0.0169241986394368
"646",0.0533902608466852
"647",0.264568714165289
"648",0.588266079157663
"649",0
"650",0.000407774908464664
"651",0.00133794996471903
"652",0.487450580605105
"653",0.123501092210466
"654",0
"655",1.8025581027814e-12
"656",3.43644443085989e-05
"657",0.199866038730601
"658",0.249586852084291
"659",1.08231668072278e-09
"660",0
"661",3.88578058618805e-15
"662",0
"663",0.0149484495969225
"664",9.19819775901942e-13
"665",0
"666",0
"667",0
"668",0
"669",0.00556150092702545
"670",0.126764689536626
"671",0.542998610521743
"672",0
"673",0
"674",3.13575821864198e-07
"675",1.01525353679577e-08
"676",5.31185206931184e-10
"677",7.66666510658709e-05
"678",0
"679",0.374437357352804
"680",0.726152393369052
"681",0
"682",0
"683",2.74225087082414e-12
"684",0
"685",0.000158300404335399
"686",0
"687",0.0306789064568008
"688",0
"689",0.920594471233882
"690",0.177988158174187
"691",0.0964858444591103
"692",0.221289333664485
"693",0.116255012248157
"694",0.529201529630897
"695",0.195343460326085
"696",0.988835972508976
"697",0.103915256440778
"698",0.72136192694688
"699",0.000118633775608057
"700",6.76572908808737e-10
"701",0.244268068659911
"702",4.52742980173726e-05
"703",0
"704",0.567122339440566
"705",0.0493692375010991
"706",0.0254384318122477
"707",0.239181712659955
"708",0
"709",0.000788994630492867
"710",0
"711",0.346343266721978
"712",0
"713",0.0322769435479293
"714",0
"715",0.289038544236512
"716",0.000329933143313643
"717",0.230088759067443
"718",0.133662406757644
"719",0
"720",0.0794292919948711
"721",0.307663224598261
"722",0.0366215376665876
"723",0.460653641035422
"724",0.0525190841141449
"725",0.674009136767642
"726",0.116695330934054
"727",0.052487800090708
"728",0.498978467586292
"729",0.236183768996308
"730",0.684998878087234
"731",0.598903777002802
"732",0.21328346356545
"733",0.529168753605908
"734",0.0241885715199486
"735",0.0193327404903597
"736",0.02518460445354
"737",0.0226980174639806
"738",0.127532063204608
"739",0.293267984713567
"740",0.00370247245084387
"741",0.332944684006945
"742",0.648515754459212
"743",0.166127570760975
"744",0.110424264424912
"745",0.104641316559047
"746",0.0352944346303667
"747",0.239169399930787
"748",0.0966841426770639
"749",0.00745836887425699
"750",0.0026037336746525
"751",0.208444790487104
"752",0
"753",0
"754",0.127820619754386
"755",0.00846322982200043
"756",0.632079096991501
"757",0.346437309395833
"758",0.0259155546294666
"759",0.133980401246258
"760",0.119848325258108
"761",0.453059053369398
"762",0.770162456180363
"763",0.952377177284819
"764",0.00331827215506719
"765",0.0045980111538545
"766",0.0820904215254444
"767",5.64221710245283e-05
"768",0
"769",0.543015565083135
"770",0.0283686277028544
"771",0.219808937182347
"772",0.26847520235371
"773",0.130843344851604
"774",0.116647969139882
"775",0.691593328591479
"776",4.95825069890543e-09
"777",0.044715780175405
"778",0.346323704154702
"779",0.400762390195227
"780",0
"781",0
"782",0.00901852258981484
"783",0.547903522023698
"784",0.0385145932408153
"785",0.811934102915871
"786",0
"787",0
"788",0.0171115314983097
"789",0.00268159037983706
"790",0.316618559659113
"791",0.0391242007663735
"792",0.0857438815233559
"793",0.285607808134824
"794",0.276068332323268
"795",0.020494811893194
"796",0.184010778000522
"797",0.282807655979943
"798",0.046148090425716
"799",0.00730761443238004
"800",0.183879290717867
"801",0.438268826633753
"802",0.340945954050828
"803",0.000380904686758332
"804",0.0865870011922644
"805",1.75407992506482e-05
"806",0.0326505463735298
"807",0.283702096734527
"808",0.15173353856572
"809",5.31175695847041e-05
"810",0.0367279684582523
"811",0.488004538677755
"812",0.0270735236012588
"813",0.0321192000201078
"814",0.214620493428197
"815",0.778524956624543
"816",0.81574470340987
"817",0.171237475622744
"818",0.0661780259476168
"819",0.385295569247466
"820",0
"821",0.00112353493590667
"822",0
"823",0
"824",0.00658992710101725
"825",0
"826",0.00247496839161265
"827",0.983452733748041
"828",0.0645138090992864
"829",0.124347809361098
"830",0.0258465225813692
"831",0.000575027207150525
"832",0
"833",0.00118970478056346
"834",0.630234523783295
"835",0.0595190599848612
"836",0.415947481733451
"837",0.00898253554181205
"838",0.0200327320878431
"839",0.000981109381878453
"840",0
"841",0.157583890719464
"842",0.523117708102167
"843",0.664928683608953
"844",0.0316131950399788
"845",0.351498440371107
"846",0
"847",0
"848",0.0655120304161448
"849",0.00503953014547798
"850",0.115848944801808
"851",0.195818095226515
"852",0.884371827201495
"853",0.534973621448366
"854",0.0145812613859252
"855",0
"856",0.0478248528642853
"857",0.56994264009357
"858",0.24323292837874
"859",0.613696749621819
"860",0.076014635973858
"861",0.0789638280325329
"862",0.204271931980467
"863",0.297027076228076
"864",0.633450609135217
"865",7.73582289181896e-06
"866",0.0763416177894469
"867",0.0550659329978347
"868",0.18891906322472
"869",0.0650179577589306
"870",0.389609235574875
"871",0
"872",0.065038834009145
"873",0.108070996251502
"874",0.168806849173214
"875",0.00129319094273395
"876",0.438583916299368
"877",0
"878",0.0913425517930848
"879",3.27489271145787e-07
"880",5.16586773358085e-13
"881",0.00120811493308348
"882",0.0607016565059063
"883",0.0447081159578488
"884",0.648008031849343
"885",0
"886",0.578513865758904
"887",0.452918544950374
"888",0.0175380244186762
"889",0.00457217615760686
"890",0.423467346320977
"891",0.0664228129598197
"892",0.00149086684725552
"893",0
"894",0.0114798908053335
"895",0.176409829099597
"896",0.0532604122828262
"897",0.00880499051634298
"898",0.503798019025877
"899",0.430797961979717
"900",0.0168218438612886
"901",1.78590475741203e-12
"902",0.95428918171175
"903",1.7576712377676e-05
"904",0.0785477779305944
"905",0
"906",0.0252292675028586
"907",0.262426794727753
"908",0.0262258025028221
"909",0.0993207289424961
"910",0.150616076076209
"911",0.240985940594329
"912",0.292301290848863
"913",0
"914",0.408072939866168
"915",0.216562326715007
"916",0.652152952233255
"917",0.481330428140849
"918",0
"919",0
"920",0
"921",2.83106871279415e-14
"922",0.000619709534832924
"923",0.0988205001448113
"924",0.340206840029537
"925",0.00175683017086536
"926",0.955399590701722
"927",0.783658672135351
"928",0.043948848692154
"929",0
"930",0.899279282559035
"931",0.235398339994588
"932",0.224427280791113
"933",0.755045239382582
"934",0.0551079081876544
"935",0
"936",0.00130597586291847
"937",0.0644950911571748
"938",0.168765202397403
"939",0.0540307988892983
"940",0.107559098734186
"941",0.0685131878676798
"942",0.672931814819119
"943",0.0615479708416622
"944",2.31587443393355e-05
"945",0.260175849741898
"946",0.307280039732249
"947",0.409899604833709
"948",0.182487016124155
"949",0.211265331324641
"950",0.131631782292912
"951",0.00511662937690094
"952",0.837385884781
"953",0.65933779451164
"954",0.469900223391957
"955",0.000898213831734718
"956",0.127394056754501
"957",0.00372217202652525
"958",0.00199796637103644
"959",0.457147797003615
"960",1.01905776472844e-06
"961",0.290576235008764
"962",0
"963",0.0990883796523104
"964",0.0015848054941856
"965",0.542909258919895
"966",0.642114196115552
"967",0.0128236424055328
"968",3.99680288865056e-14
"969",0.404887726320895
"970",0.0638337820682506
"971",0.0191681947170601
"972",0.00206589485513509
"973",0.00445839294000794
"974",0
"975",0.875328654314913
"976",4.27498036970064e-10
"977",0.0439481693537003
"978",0.00597844273443648
"979",0
"980",0
"981",0.000510927068017031
"982",0
"983",2.44906038893156e-07
"984",0
"985",0
"986",0
"987",0
"988",1.38117012271621e-08
"989",0.0333254849608978
"990",0.137125052845676
"991",0.00307551338193734
"992",0.003764149323915
"993",0
"994",0
"995",0.193620726218615
"996",0
"997",0.457701896472138
"998",0.368971727870343
"999",0
"1000",0.211105567508251
"1001",0.00389701376173512
"1002",1.64568103810936e-07
"1003",2.30531328360151e-07
"1004",4.49916930922445e-06
"1005",0.00220895155678347
"1006",0.776971138370122
"1007",0.58251199127063
"1008",0.246306377506732
"1009",0.127412850976177
"1010",8.77596995074725e-10
"1011",0
"1012",3.80806497446429e-14
"1013",0.337071969127699
"1014",0.0137675468955861
"1015",0
"1016",2.22578178110666e-10
"1017",0
"1018",0
"1019",0
"1020",0.375145193914666
"1021",4.56532654280473e-06
"1022",0.00974297341293229
"1023",0.156461623092077
"1024",0
"1025",0.175136837500336
"1026",0.000627752589970276
"1027",0.0379234830122022
"1028",0.115875959428936
"1029",0
"1030",0
"1031",0.379834960344135
"1032",0.0940252473939313
"1033",0.422270637401378
"1034",0.0529353680290684
"1035",0.00257580327869456
"1036",0
"1037",0.279996272693908
"1038",0.0105195310789484
"1039",0.552951560292085
"1040",0.0229930373673418
"1041",0
"1042",6.76838695465865e-05
"1043",7.89992713512433e-06
"1044",0
"1045",3.98007733615202e-06
"1046",1.55137234170155e-08
"1047",0
"1048",0
"1049",0.159588245578888
"1050",0.964893727587262
"1051",0.295397148066698
"1052",0
"1053",0
"1054",1.11022302462516e-16
"1055",0.381963884255984
"1056",0.349183161598725
"1057",1.5354323803729e-05
"1058",0.0502639235510708
"1059",0.17101388961603
"1060",0
"1061",0
"1062",0.541233289327022
"1063",0.338390829284355
"1064",0
"1065",0.881034846535329
"1066",0.618288868239636
"1067",0.547826884905759
"1068",0
"1069",0
"1070",1.86672020952017e-06
"1071",0.0918952250062193
"1072",0
"1073",0
"1074",0.537267294789476
"1075",0
"1076",0.0133406099039175
"1077",0.264020930141166
"1078",0.334133152602522
"1079",0.558187083003006
"1080",0
"1081",0.11912241208118
"1082",0.469845257445503
"1083",0.604846627868792
"1084",0.188812540921027
"1085",0.555147558315212
"1086",0
"1087",0.359480478767666
"1088",0.966982431809541
"1089",0.440052441525159
"1090",0.211890923016941
"1091",0.457063025314132
"1092",0.801148175180136
"1093",0.152831019090966
"1094",0.770688236713808
"1095",0.0311361423622135
"1096",0.204465307995559
"1097",0.856931461007684
"1098",0.805853813110746
"1099",0.000879423702967341
"1100",0.244353676456018
"1101",0.0303988802350519
"1102",0.39593416559563
"1103",0.789555666598089
"1104",0.131909163248699
"1105",0.286244318595714
"1106",0.505190671411099
"1107",0.600901306329821
"1108",0
"1109",1.87627691161651e-14
"1110",8.44633382994786e-05
"1111",0
"1112",0.0130398575233827
"1113",8.4949017697955e-07
"1114",9.32321426727611e-08
"1115",0
"1116",0.593397272816478
"1117",0.44804906924019
"1118",0.0861206121065025
"1119",0.525935957728144
"1120",0.116162075411522
"1121",0.194152262332566
"1122",0.00965102901799497
"1123",2.26340441290551e-05
"1124",0.0203223939447638
"1125",0.339489992439492
"1126",0
"1127",0
"1128",2.10464978778191e-12
"1129",0.000229365927811975
"1130",1.72217795579854e-12
"1131",0.0579939145716928
"1132",0.786256094823604
"1133",5.6205812506871e-05
"1134",0
"1135",0.00801729366190829
"1136",0.00212145072791703
"1137",0
"1138",0.460809073922501
"1139",0.000138172487282762
"1140",0.579027178401875
"1141",0
"1142",0.728171965204
"1143",0
"1144",0
"1145",0.152880043990426
"1146",0
"1147",5.94345037863153e-06
"1148",0
"1149",0
"1150",0.432480507002916
"1151",0.499937061332894
"1152",0
"1153",0.244773503035063
"1154",0.664252623981606
"1155",1.17300513131635e-05
"1156",0.00223248429671397
"1157",0.279989384608022
"1158",0.00274088069939116
"1159",0.00662554902563572
"1160",0.032330576589379
"1161",0.360373356702454
"1162",1.11022302462516e-16
"1163",0.0349286955865261
"1164",0.405977057195592
"1165",0
"1166",0.927174270608657
"1167",0
"1168",0.00197168267865344
"1169",0
"1170",0
"1171",0.282605333049013
"1172",0.00981427843961147
"1173",0.388016139540411
"1174",0.191362227310457
"1175",0.404440787363399
"1176",0.0665863003041571
"1177",0
"1178",0.283277083474729
"1179",0
"1180",0.677346516102372
"1181",0.732809226453066
"1182",0.598470560604533
"1183",3.05744813455799e-06
"1184",0.0349415381200771
"1185",0.000285485915684225
"1186",0.00320923978968013
"1187",0.85894412388928
"1188",0.0183843715729829
"1189",7.83458974340512e-06
"1190",0.835870532790387
"1191",0.448205527505414
"1192",0.768606774520726
"1193",0.00951179749762743
"1194",1.00923154399135e-05
"1195",0.0459886249317585
"1196",0.550877201483882
"1197",0.874480265019241
"1198",0
"1199",0
"1200",7.7177900800196e-06
"1201",6.02653214435422e-05
"1202",0
"1203",0.67024137786854
"1204",0.883220146859496
"1205",0.0290754808918181
"1206",0.186304660257197
"1207",0.667371822894985
"1208",0.0797301042528722
"1209",0
"1210",0
"1211",0
"1212",0
"1213",0.435365745735277
"1214",0.754844854259561
"1215",0.925220991378542
"1216",0.845438129624075
"1217",0
"1218",0.594003087937902
"1219",0.455844252675759
"1220",0.024069586083649
"1221",0.181834477468014
"1222",0
"1223",0.146058767982729
"1224",0.0987019585763147
"1225",0.502206573425457
"1226",0
"1227",0
"1228",6.90335604236481e-07
"1229",0.000297404477525909
"1230",1.54045040057227e-08
"1231",3.32282701354103e-09
"1232",0.00254411617430983
"1233",1.23234755733392e-14
"1234",0
"1235",0.164616517360241
"1236",0
"1237",6.86428691665242e-12
"1238",0.0145960151866459
"1239",0
"1240",0.263894077431927
"1241",0.0778038002852659
"1242",0.250439966691569
"1243",0.13222220026504
"1244",0
"1245",0.307389601427655
"1246",3.41837669282086e-13
"1247",0
"1248",0.166762166261015
"1249",0
"1250",0
"1251",0
"1252",7.83035906115614e-08
"1253",0.368026476545352
"1254",4.77921868105025e-05
"1255",0
"1256",0
"1257",0.750191111753707
"1258",0
"1259",0
"1260",0.0584189433960405
"1261",0
"1262",0
"1263",0
"1264",4.0756639287598e-05
"1265",0
"1266",1.11022302462516e-16
"1267",0
"1268",0
"1269",0
"1270",0
"1271",0.0529623600710245
"1272",0.0975124463693042
"1273",0.0304136366602928
"1274",0.0479007387143288
"1275",0.0897843591347662
"1276",0
"1277",0.231504859440852
"1278",0.000804233692994538
"1279",0
"1280",0.264182713172359
"1281",0.303706967238219
"1282",0
"1283",0.0138933307184821
"1284",0.410257263148777
"1285",0.146454000421803
"1286",0.315171154067631
"1287",0.227620729654997
"1288",0.0432653297722587
"1289",0.115992228094384
"1290",0.0767625736043589
"1291",0
"1292",0
"1293",0
"1294",0.29773987897024
"1295",0
"1296",0.0739135886045321
"1297",0.0216723420025151
"1298",0.588780368595863
"1299",0
"1300",0.362081869560581
"1301",0.00523502153834232
"1302",0
"1303",0
"1304",0.115750481827929
"1305",0
"1306",0.0722129029936803
"1307",0
"1308",0
"1309",0.113019785908399
"1310",0.00182849412264363
"1311",1.56985757726602e-10
"1312",0.923283377027468
"1313",0
"1314",0.258501573625318
"1315",0.323474666330691
"1316",0
"1317",0
"1318",0.131005144500011
"1319",0.189217944890643
"1320",0.0285215711583527
"1321",0.183413998272191
"1322",0
"1323",0.23076795113659
"1324",0
"1325",0.939902258178836
"1326",0
"1327",0
"1328",0
"1329",0.541046658383671
"1330",0
"1331",0
"1332",0.00926934153198611
"1333",0
"1334",5.02931030155196e-14
"1335",0.000749230047431326
"1336",0
"1337",0
"1338",0
"1339",0
"1340",0
"1341",0
"1342",0
"1343",0
"1344",0
"1345",0
"1346",1.43940415142652e-10
"1347",2.05065390224135e-08
"1348",2.22044604925031e-16
"1349",2.76136191690313e-09
"1350",0.0697382653397918
"1351",0.00632285862781734
"1352",0
"1353",0.554750596720139
"1354",0.010064562179519
"1355",1.8069989948799e-12
"1356",0.0105392138741728
"1357",0.0618676735666691
"1358",3.85456480724855e-05
"1359",0.933166725442984
"1360",0.0192331112621341
"1361",0.00481446708150457
"1362",0.0276117046990497
"1363",0
"1364",0
"1365",0
"1366",0
"1367",0.00103526105103258
"1368",1.22254993341064e-05
"1369",0
"1370",0
"1371",0.0706529398155342
"1372",0
"1373",5.07938188176738e-08
"1374",0.0972150497396047
"1375",3.98570065840431e-14
"1376",1.95399252334028e-14
"1377",6.78574085810624e-10
"1378",0.000182342763048071
"1379",0.308675448823325
"1380",0.0627058606583302
"1381",0.264666961399933
"1382",0.000400102537194136
"1383",0.0642630376384461
"1384",0.146584151439509
"1385",0
"1386",0.0383430871088013
"1387",0.0152021784804394
"1388",0
"1389",6.83325673822566e-08
"1390",1.1123213461417e-11
"1391",0
"1392",0
"1393",0
"1394",0.618270064802608
"1395",0.203970500527294
"1396",0.0592215874991718
"1397",0.0540193276733281
"1398",0.0522842918065645
"1399",0.0938133485630659
"1400",0.001724632490957
"1401",0.118663049173451
"1402",0.113415330235331
"1403",0.800209418849571
"1404",0.0257434419036587
"1405",0
"1406",0.144094544817861
"1407",0
"1408",0.548225650239027
"1409",0.50926671877444
"1410",0
"1411",0
"1412",0.0745155156741109
"1413",8.36870128750888e-10
"1414",0.0147283821968693
"1415",0.0892145734245071
"1416",0.00269500790064281
"1417",0.535928346323856
"1418",0
"1419",0
"1420",0.407496918116748
"1421",0
"1422",0
"1423",5.21259906993699e-06
"1424",0
"1425",0
"1426",0
"1427",0
"1428",0
"1429",0
"1430",2.76108802488295e-10
"1431",0.00112648993071496
"1432",0
"1433",0
"1434",0.168028928780575
"1435",0
"1436",5.78649350657656e-09
"1437",0
"1438",0
"1439",3.56847884575018e-12
"1440",0
"1441",0
"1442",1.4604772995086e-05
"1443",0
"1444",0
"1445",1.11022302462516e-16
"1446",0
"1447",1.83840165313143e-09
"1448",8.63590298350037e-06
"1449",0
"1450",0
"1451",0
"1452",0
"1453",0
"1454",0
"1455",1.36280781104503e-08
"1456",0
"1457",0.00169552469256173
"1458",0.0119635836483637
"1459",0
"1460",0
"1461",0.0605555827555513
"1462",0.000382324415580282
"1463",0
"1464",0.00206634806894879
"1465",0
"1466",0.0295322153341994
"1467",0
"1468",1.21359622351491e-09
"1469",1.33988825590237e-08
"1470",0
"1471",0
"1472",0
"1473",0.2372356419044
"1474",6.17880191455811e-11
"1475",0
"1476",0
"1477",1.84963155902551e-13
"1478",1.02406656155019e-06
"1479",0.0195018447456629
"1480",0.0078328135398964
"1481",0
"1482",0
"1483",5.32907051820075e-14
"1484",0.16137734166767
"1485",0.00210772241038215
"1486",3.7865440407403e-05
"1487",1.05881977741085e-06
"1488",0.609790962976648
"1489",0.00211521181733076
"1490",0.00486869552241165
"1491",0
"1492",7.45858930173426e-11
"1493",0
"1494",3.56620576229538e-05
"1495",0.286583903477431
"1496",0
"1497",4.49014273540271e-08
"1498",0.04023821051896
"1499",0.0247691561617898
"1500",0
"1501",0.0509212643163538
"1502",0
"1503",0.126984519867236
"1504",0
"1505",0
"1506",3.33066907387547e-16
"1507",9.0660343607829e-05
"1508",1.75029579696506e-06
"1509",1.82753733257712e-08
"1510",0
"1511",0.0110757564780486
"1512",6.97839896979247e-10
"1513",0
"1514",3.21748652054588e-07
"1515",0
"1516",0
"1517",0
"1518",0
"1519",0
"1520",0
"1521",0
"1522",0
"1523",0
"1524",0
"1525",0
"1526",2.61368704457254e-12
"1527",0
"1528",0
"1529",0
"1530",0
"1531",0
"1532",2.07507966365483e-09
"1533",0
"1534",0.0208034875030085
"1535",0.232385916975119
"1536",0
"1537",2.40123010153415e-06
"1538",0
"1539",0
"1540",0
"1541",0.0087031725178679
"1542",0
"1543",0
"1544",0
"1545",1.07301345586563e-09
"1546",0
"1547",0.000266957683804914
"1548",0
"1549",9.92772530850061e-12
"1550",0.012122190625691
"1551",0
"1552",0.00679091663534304
"1553",0
"1554",0
"1555",0.194581116744684
"1556",0.000509345893635826
"1557",5.60816262207275e-07
"1558",0
"1559",0
"1560",3.5527136788005e-15
"1561",0.00162075305179799
"1562",0.00150614370091906
"1563",0.0348047400704214
"1564",0.547977149792854
"1565",2.04114517243781e-06
"1566",0.0210795009082678
"1567",3.5648318055248e-06
"1568",0.0676349851543633
"1569",0.379917052508272
"1570",0.0854209559648854
"1571",0
"1572",0
"1573",0
"1574",4.84078515383679e-07
"1575",0.170746859786203
"1576",0
"1577",7.15859790223483e-07
"1578",0
"1579",1.65382335315378e-06
"1580",4.38441672552248e-05
"1581",0.859379897876608
"1582",0
"1583",0
"1584",0
"1585",4.28755131398617e-09
"1586",0.0105381613995753
"1587",0
"1588",0
"1589",0
"1590",1.15096256858571e-07
"1591",0
"1592",0
"1593",0
"1594",0
"1595",0.852480463430775
"1596",6.21724893790088e-15
"1597",6.41073669738201e-06
"1598",0
"1599",4.77913010654696e-06
"1600",0.162452395597882
"1601",0
"1602",0.673695418180806
"1603",4.22024304869151e-06
"1604",0
"1605",0
"1606",2.56021537303752e-10
"1607",0.14160499320848
"1608",0.919929166244909
"1609",0.90914659420913
"1610",0.680494639296108
"1611",0.00464629678681105
"1612",0.265876056924923
"1613",0
"1614",0.10190573248227
"1615",0.118261685359015
"1616",0.629703551550314
"1617",0.986283726751115
"1618",0.555341473958805
"1619",0.208333359794548
"1620",0.220234676810776
"1621",0.238601929622464
"1622",0.438729126083411
"1623",0.46059275469671
"1624",0.89720663038581
"1625",0.569503781612287
"1626",0.134816252853503
"1627",0
"1628",1.20065308806261e-08
"1629",0.988235955102916
"1630",0.827229988156309
"1631",0.0928520071641391
"1632",0.379119421299836
"1633",0.267822724812425
"1634",0.419755240083537
"1635",0.156393022638529
"1636",0.329341128832316
"1637",0.16183255287818
"1638",0.000155640254771328
"1639",0.29839704700583
"1640",0
"1641",0
"1642",0.461070819143994
"1643",0.0257716620687447
"1644",0.30882179183282
"1645",0.938119356164743
"1646",0.156723384568886
"1647",0.229769710419509
"1648",0.814147394839159
"1649",0.947728078724975
"1650",0.62137280070393
"1651",0.501135069582608
"1652",0.051820517337193
"1653",0.292190605175671
"1654",0.0991900446572165
"1655",0.491899385291828
"1656",0.426163638104551
"1657",0.0193652480643982
"1658",0.732376327933542
"1659",0.29621259147188
"1660",0.498886526633595
"1661",0.080617945454675
"1662",0.0884022671426046
"1663",0.325031561024211
"1664",0.168217027797317
"1665",0.184781796589287
"1666",0.629798662829089
"1667",0.0270452613488825
"1668",0.529329280961298
"1669",0.157654548991544
"1670",5.45180318978211e-06
"1671",0.00200516566217046
"1672",4.22935020338855e-11
"1673",0.00177250409895213
"1674",8.96293997021402e-07
"1675",0.0202292431904568
"1676",0.911159471253757
"1677",0.124666716833729
"1678",0.00827402033531321
"1679",0.0362242287081055
"1680",0.441174884663302
"1681",0.465366291186126
"1682",0.0912995818450484
"1683",0.0209302678196742
"1684",0.622593397831282
"1685",0.00371608435932558
"1686",0.499740654296778
"1687",0.256261776425895
"1688",0.556072148564048
"1689",0.601822780448699
"1690",0.0512831591479517
"1691",0.225197043638569
"1692",0.306242716851082
"1693",0.770001006745859
"1694",0.583201260712374
"1695",0.472147946270802
"1696",0.00881784848958678
"1697",0.396723687638493
"1698",0.0139431490782366
"1699",4.50384174399687e-12
"1700",0
"1701",0.444192187344488
"1702",0.133936738489488
"1703",0.40445015743159
"1704",0.290904684596248
"1705",0.208977205258796
"1706",0
"1707",0
"1708",0.000910465292688345
"1709",1.17683640610267e-14
"1710",0.0853113274033817
"1711",0.906181450888591
"1712",5.46367149402149e-05
"1713",0.00975256779342437
"1714",0.0976615266606397
"1715",0.152670008690835
"1716",0.146564667476634
"1717",0.793330071834611
"1718",0.119857295901337
"1719",0.00107857747610074
"1720",0
"1721",2.48713509687359e-06
"1722",0
"1723",0.0144972767532664
"1724",0
"1725",0
"1726",0
"1727",7.50118849899284e-05
"1728",3.5527136788005e-15
"1729",0.466368105928863
"1730",0.476940413973386
"1731",0
"1732",0.000109938266946941
"1733",0.0319786389546763
"1734",0.167764519380328
"1735",0
"1736",0
"1737",0
"1738",0.434194994531712
"1739",0.0303941716127015
"1740",0.683151988729866
"1741",0.0497322497246997
"1742",0
"1743",0
"1744",0.0908659368545034
"1745",0.375473316777708
"1746",0
"1747",0.87168295596952
"1748",0.670121018969296
"1749",0
"1750",0.00011176781354294
"1751",0
"1752",0
"1753",9.97253054579872e-08
"1754",0
"1755",0.288021193012965
"1756",0.033626626597286
"1757",0.0215818099357384
"1758",0.810069520887955
"1759",0
"1760",0
"1761",0
"1762",0.0770906977640639
"1763",0
"1764",0.264078409739618
"1765",0.000110331707468991
"1766",0.0117661717337765
"1767",0
"1768",0
"1769",0.840634204402518
"1770",0.235907165082513
"1771",0.00889909324495219
"1772",0.0526158955673411
"1773",0.271185191799178
"1774",0.0192144068313337
"1775",0.0169683767211661
"1776",0.304290816249729
"1777",9.2541563301296e-10
"1778",0.0025118551881177
"1779",0.00675537704744222
"1780",0.00041504350375432
"1781",0.0218686173260799
"1782",0.000506817277829197
"1783",0.0451882333860913
"1784",0.0653536034169115
"1785",0.0619423730110286
"1786",0.244271801049546
"1787",0.380895227664385
"1788",0
"1789",0
"1790",0.0508611596693826
"1791",0.019351663369196
"1792",0.0111494844496417
"1793",2.68336016739923e-08
"1794",0.876525714991103
"1795",0.44247155119867
"1796",0.0149952399387736
"1797",0.0142828653281535
"1798",0.214353871773536
"1799",0.162375409512636
"1800",0
"1801",0.675197119192074
"1802",0.055117735012217
"1803",0.00708214015284259
"1804",0.0182872341091921
"1805",0
"1806",0.00120831162905755
"1807",0.178671338065047
"1808",0.00101449749692117
"1809",0.210286757033679
"1810",0.734168103922342
"1811",0.142995152215113
"1812",1.63028020527811e-07
"1813",0
"1814",0.0497469601636586
"1815",0
"1816",0.0090313697701716
"1817",0.461192354491144
"1818",0.00673128488876384
"1819",0.299080088937738
"1820",0
"1821",0
"1822",0
"1823",0.00808483745158228
"1824",0.333795590257282
"1825",0.0416219162044955
"1826",0.173453395299902
"1827",0.00133223177797492
"1828",0.00136210998907349
"1829",0.589891656089448
"1830",0.729174586941647
"1831",0.301799996694966
"1832",0.147416216359948
"1833",0.782701165759113
"1834",0.437336450293316
"1835",0
"1836",0.0180010204502222
"1837",0.000278611060217093
"1838",0
"1839",0.0070981537323932
"1840",0.100525441463375
"1841",0.033162423562525
"1842",0.521525641734524
"1843",0.0326645455953173
"1844",0.190143146564899
"1845",0
"1846",0
"1847",0.0716961594970957
"1848",0
"1849",0
"1850",0.000112740064405759
"1851",0.00403243560135946
"1852",0.0191019079169534
"1853",0.0600580663826108
"1854",0.618645196982688
"1855",0.138054768947831
"1856",0.116637382678714
"1857",0.485923687148263
"1858",0.552097878828834
"1859",0.111393855469703
"1860",0.561019119580994
"1861",0.422887036524422
"1862",0.396024536337469
"1863",0.305015935483328
"1864",0.194942562164459
"1865",1.48430228885665e-07
"1866",0.577028934323221
"1867",6.30199999920311e-05
"1868",0
"1869",0
"1870",0.841458043849306
"1871",0.112014647195004
"1872",0.590412086788393
"1873",0.533276822814398
"1874",0.154133038341935
"1875",0.118303071389701
"1876",0.526543520099752
"1877",0.286848013533323
"1878",0.0220465101660103
"1879",0.344821696223808
"1880",0.20548107254418
"1881",0.774535599320981
"1882",0.797326166690768
"1883",0.922494794534223
"1884",0.0422238536044854
"1885",0.503700733116461
"1886",0.131512767867212
"1887",0.293776285989211
"1888",0.111182431668466
"1889",0.101122182403355
"1890",0.879763959509787
"1891",0.128680035470886
"1892",0.0836755053282016
"1893",0.291954473207284
"1894",0
"1895",0.0597649500291609
"1896",0.929993270449189
"1897",0.989610711641202
"1898",0.602818888780262
"1899",0
"1900",0
"1901",0.278261127253631
"1902",2.29379808722729e-05
"1903",0.0380561122879627
"1904",0.0125469833412296
"1905",0.333478609898446
"1906",0.025738502063529
"1907",0.021580549812436
"1908",0.309537405195849
"1909",0.162415638112159
"1910",0.117662951678297
"1911",0.447939837599087
"1912",0.853061308857885
"1913",0.0161378570866096
"1914",0.0215124104056574
"1915",0.587757324877125
"1916",0.0581570070468184
"1917",0.399477327871982
"1918",0.0263900325689377
"1919",0.886238111824721
"1920",0.0460466889806674
"1921",0
"1922",0.606960947479239
"1923",0.371070534393341
"1924",0.728855971323849
"1925",0.000644311747378445
"1926",0.0267567965659926
"1927",0.551874517151949
"1928",0.894726180487996
"1929",0.642792455436085
"1930",0.151124158682328
"1931",0.000638315162666325
"1932",0.336983589138705
"1933",0
"1934",0.354013257812028
"1935",7.15566329523298e-07
"1936",0.000560055252003755
"1937",1.26195069949375e-08
"1938",0.00690665126677603
"1939",0.776448478629208
"1940",0.0635783289073688
"1941",0.277743799300114
"1942",0.00678892166823752
"1943",0.17441268547183
"1944",0.00382733715564909
"1945",0.0382266701300118
"1946",0.000224393792660593
"1947",6.92788548195544e-07
"1948",3.52189721830598e-10
"1949",0
"1950",0.0262053445620711
"1951",0
"1952",0.0226200285033409
"1953",0
"1954",0.83708008284245
"1955",0.331552036741962
"1956",0
"1957",9.73040389706803e-07
"1958",0.0612730050042831
"1959",0.00484106750739233
"1960",0.0634696972312441
"1961",0
"1962",0
"1963",0.388224919952049
"1964",0.00110194437797539
"1965",0.0155075238239551
"1966",0
"1967",0
"1968",0
"1969",0.427343529252652
"1970",0.000112432164550369
"1971",0
"1972",0.0500943649997867
"1973",0.0681685100895822
"1974",0.119617771261949
"1975",0.000912204946834083
"1976",0.0901591483567505
"1977",0.408116805107655
"1978",0.836969881660101
"1979",0
"1980",0
"1981",1.09964489006797e-05
"1982",0.00172559068052403
"1983",0
"1984",0.0271375135678963
"1985",1.23569354570918e-06
"1986",2.54751131301134e-09
"1987",0.2940562012848
"1988",0.0723478924498937
"1989",0.332057498602685
"1990",0.162189002303686
"1991",0.0530730407546183
"1992",0.948253397331818
"1993",0.507777383323815
"1994",0.00136477345838826
"1995",0.870578711759973
"1996",0.0681372087232319
"1997",0.149666864129555
"1998",0
"1999",0.707782045118188
"2000",0.00499308368621032
"2001",0.000186742249731586
"2002",0.445720491143632
"2003",0.20633516297857
"2004",0.0129980348621912
"2005",0.509866275055257
"2006",0.00963212369467414
"2007",0.0640996172389515
"2008",0.00158496140820907
"2009",2.72403945977828e-06
"2010",0.108699245176979
"2011",0.13776217983395
"2012",0
"2013",0
"2014",0
"2015",0.00123951436725256
"2016",0.391936918968101
"2017",0
"2018",0.129809913679276
"2019",0.963449796622263
"2020",0.303806806762782
"2021",0.250668929590674
"2022",0.0246629759954953
"2023",0.0364472612900568
"2024",0
"2025",0.063568798320314
"2026",0
"2027",1.10456088719957e-12
"2028",6.231681837221e-13
"2029",0.613504734169648
"2030",0.299807136154989
"2031",1.29179093755205e-06
"2032",0
"2033",0.498562638536743
"2034",0.233569274679723
"2035",0.106452758555407
"2036",0.000801045456942484
"2037",0.420088447962614
"2038",0.0423039291167858
"2039",0.000904629593208583
"2040",0.0983299255089729
"2041",0.51952691069127
"2042",0.292104862973776
"2043",0.512280441132378
"2044",0.000381903723588595
"2045",0.0784656571174638
"2046",0.109783705302509
"2047",0.377648951624041
"2048",0.0397239031800763
"2049",0.121189117797547
"2050",0.852445281976188
"2051",0.478737699351837
"2052",0.739765865308256
"2053",0.998296874741926
"2054",0.5883572086882
"2055",0.00325729960803745
"2056",0.615298555293772
"2057",0.754411105252791
"2058",0.492683111662596
"2059",0.654349478107701
"2060",0.260663186393762
"2061",0.0281856624434217
"2062",1.33226762955019e-15
"2063",0.0105563111753382
"2064",0.0641197517193001
"2065",0.330171744305967
"2066",0.773195124545499
"2067",0.955834006614558
"2068",0
"2069",0.0128448780450197
"2070",0
"2071",0.0575892452496861
"2072",0.842046901561891
"2073",0.296385062641201
"2074",0.0227735838873887
"2075",0.0809015023041089
"2076",0
"2077",0.00792293936750454
"2078",0.0652496415864205
"2079",0.912250574723288
"2080",0.0359213017433025
"2081",0.866566652806401
"2082",0
"2083",0.00734881443500801
"2084",0.0753409742674428
"2085",0.747767543115643
"2086",2.23761320583549e-09
"2087",0.311902513109593
"2088",0.807366349775331
"2089",0.000477788450245265
"2090",0.000212209971626853
"2091",0.561988546515258
"2092",0.00620393226098137
"2093",0
"2094",0.0898913056847037
"2095",0.589345545970462
"2096",0.0360152311996782
"2097",0.168521438535495
"2098",4.46523928943066e-10
"2099",0
"2100",0.113414814214852
"2101",2.68835509409371e-10
"2102",0
"2103",0
"2104",0
"2105",4.91835325244772e-07
"2106",0.310535191691261
"2107",0.963694712663756
"2108",2.16419104859256e-10
"2109",0.29697853064704
"2110",0.00179697973955484
"2111",0.389536384406576
"2112",0
"2113",0
"2114",0.000151166375406464
"2115",0.068413550222437
"2116",2.31198131807053e-05
"2117",6.90356338761688e-09
"2118",0.197137980615409
"2119",0.0112309608917643
"2120",0.464331990323417
"2121",0.760743296116013
"2122",0.00770665815810945
"2123",0.00726023614340177
"2124",0.010547771282825
"2125",0
"2126",0
"2127",0
"2128",0.966226119399584
"2129",0.000778408841757838
"2130",0.00317462986020833
"2131",6.97206552793261e-05
"2132",2.09054995536917e-11
"2133",2.46441118630925e-05
"2134",0
"2135",8.66441018931852e-09
"2136",0
"2137",0.0534118311676268
"2138",0.396722410372498
"2139",0.0822879277514074
"2140",0
"2141",4.22915386155687e-07
"2142",0.464951746969614
"2143",0.00123415413738959
"2144",0.0389941468818018
"2145",0
"2146",0
"2147",1.88737914186277e-15
"2148",0
"2149",0.407985744386343
"2150",0.0126385758812929
"2151",0.114006203963523
"2152",0.00363084351103371
"2153",7.32341495226496e-05
"2154",9.60722336129649e-08
"2155",0.284947361418811
"2156",1.19530607634033e-10
"2157",0.00913168361471361
"2158",2.58803459961543e-05
"2159",0.244582809304739
"2160",0.00513736241893636
"2161",0.228131819518976
"2162",0.77082508965001
"2163",0.152516006122059
"2164",0.0553246219067156
"2165",0.117348791592428
"2166",0.00116053635769253
"2167",0.000749530816393951
"2168",0.183569675824425
"2169",0
"2170",0
"2171",0
"2172",8.20997714257032e-11
"2173",3.39815361027895e-06
"2174",0.00435419197852505
"2175",0.524575821433972
"2176",0.000388994527836695
"2177",0
"2178",0.617998317748607
"2179",0
"2180",0
"2181",0.105089728792288
"2182",0.0750119561431104
"2183",0.715645411836122
"2184",0.96625345934394
"2185",0.634002361623218
"2186",0.124882604252912
"2187",0.0141877291296526
"2188",0.00284423008804657
"2189",0
"2190",0.0265845673909872
"2191",0.105133212206086
"2192",0.74316633765243
"2193",0
"2194",0
"2195",3.41256161795478e-05
"2196",0.269207772444928
"2197",0
"2198",0.322832517989744
"2199",0.0568463502601695
"2200",0.0161164040019047
"2201",2.79078293174972e-06
"2202",0.00729862249449476
"2203",0.0975195512824255
"2204",0
"2205",0.000273684499894511
"2206",0.525678360169063
"2207",0.518395155414982
"2208",0.894764695855437
"2209",0.334186640384991
"2210",0.0188351044638372
"2211",0.491128395870887
"2212",1.21014309684142e-14
"2213",0.198035171345628
"2214",0.372981875028489
"2215",0.000173438302487727
"2216",0.0756563469393284
"2217",0.703575257726458
"2218",0.592526309172197
"2219",0.247169095036079
"2220",0.00665825482267723
"2221",0.080935659615172
"2222",0.857647572181285
"2223",0.0319769944377041
"2224",0.670176212571646
"2225",0
"2226",0.0181615938701286
"2227",1.4995782393612e-12
"2228",0.256013988977644
"2229",0.697489545178958
"2230",0.00631369655577574
"2231",0
"2232",2.1614725815855e-06
"2233",0.223295299285949
"2234",0.0753623661106728
"2235",0.0631914924212172
"2236",0.0248875115446845
"2237",0.0450505342604323
"2238",0.361758422914021
"2239",0.302291029590751
"2240",0.550136956489451
"2241",0.976009253562794
"2242",0.000786260217892631
"2243",0.137375067180927
"2244",0.232519188542763
"2245",0.0227244747706357
"2246",0.126808133000306
"2247",0.413423213127847
"2248",0.20702412465508
"2249",0.00188021960417861
"2250",0.610173381559433
"2251",0.154302599222261
"2252",0.0692751170807276
"2253",0.90132362242775
"2254",0.352645118225456
"2255",0.0216387118380681
"2256",0.0102254253233149
"2257",0.091915326855022
"2258",0.0237162682187464
"2259",0
"2260",0.0078561821145593
"2261",0
"2262",0.185885515006322
"2263",0.108405121018143
"2264",0.150809344680731
"2265",0
"2266",5.45753743752542e-06
"2267",0.120873112681525
"2268",0
"2269",0.115387576028738
"2270",0.361572090545435
"2271",1.29220025232302e-05
"2272",0.000773476780680626
"2273",0.0679756096713519
"2274",0
"2275",0.0122279140555303
"2276",0.00598718741225035
"2277",0.00183225496780492
"2278",0.113805287003742
"2279",0.146882885347832
"2280",0
"2281",0.570649580746153
"2282",0.181279698549789
"2283",0.77318785659095
"2284",0.191332142391925
"2285",1.322385534408e-09
"2286",0.264843625184282
"2287",0.0250204745760577
"2288",0.598637270780099
"2289",0.0969241520039286
"2290",0.45496397763835
"2291",0.010952041778039
"2292",8.79372956852364e-06
"2293",0
"2294",0.0640713563463798
"2295",0.550367761864482
"2296",0.0190317274342755
"2297",0.375868094737208
"2298",3.40150130284655e-12
"2299",0
"2300",3.9146463848283e-13
"2301",0.000423841281830595
"2302",0.163505460003704
"2303",0.00984938683540137
"2304",0.221325378906048
"2305",0.0700004463154336
"2306",1.1473786420968e-06
"2307",0.0022426126891969
"2308",0.00496584852180149
"2309",0.118636839079448
"2310",0
"2311",0.022851937301017
"2312",0.0300152360175895
"2313",0.00139113111677247
"2314",2.21503926312039e-11
"2315",0
"2316",0
"2317",0
"2318",0
"2319",0.00811050193002216
"2320",0.131449585778366
"2321",0.0901987320464673
"2322",4.16874522777277e-05
"2323",0.438762569428905
"2324",0
"2325",0
"2326",0.0016721904908269
"2327",0.702569772085313
"2328",0.00426430561649838
"2329",0.0174753423393653
"2330",0.0174898822001961
"2331",0.00351516290810494
"2332",0
"2333",0.00116628530157248
"2334",0.0185797326868233
"2335",0.0239248448787645
"2336",0.0167562340779198
"2337",0.00307736860733632
"2338",0.0762845703294112
"2339",0.014536590443771
"2340",0.00405812446509912
"2341",0.0021999520587177
"2342",0.338016913924998
"2343",0.000247277085176911
"2344",0.0415210481518117
"2345",0.00735732152227042
"2346",0.0211472640205542
"2347",0.327536724498391
"2348",2.0335186534659e-08
"2349",0.149069428076368
"2350",0.493038603997416
"2351",8.92590762235912e-06
"2352",2.09865986477986e-07
"2353",1.46660461552983e-13
"2354",2.01335086380539e-08
"2355",0
"2356",0
"2357",0
"2358",0
"2359",0
"2360",0.00610578606360146
"2361",0.00691045612614538
"2362",0
"2363",0
"2364",0.504314335820112
"2365",0.430216550231392
"2366",0.0183922081389292
"2367",1.15861753524626e-09
"2368",2.79974830952323e-06
"2369",0.000533733424618821
"2370",0.246973900127706
"2371",0.0285798223287527
"2372",0.0459054569452282
"2373",0.0196469001343885
"2374",0.000594583596296938
"2375",0.00731740786662161
"2376",0.0819322474097006
"2377",0.2441496514597
"2378",0.168214135063017
"2379",0.154490560389612
"2380",6.70208666642136e-06
"2381",0.300475659885749
"2382",5.55111512312578e-16
"2383",0.021839778014123
"2384",0.000616473679326823
"2385",0.140115257300023
"2386",0.0025439128906446
"2387",0.00227368782092485
"2388",0.227426339176585
"2389",0.00522108824655421
"2390",0.0925799234193058
"2391",0.305029520442415
"2392",0.00401537235284943
"2393",0.0287216887422338
"2394",0.127525469097527
"2395",0
"2396",0.0114243486973199
"2397",8.18696859679058e-05
"2398",0.207012961908322
"2399",0.0004456813841619
"2400",0.031490382661065
"2401",4.36340277354397e-07
"2402",0.12355541648475
"2403",0.00265396989329536
"2404",3.48041340968441e-05
"2405",8.32959050012239e-06
"2406",0.000161319533882986
"2407",0
"2408",1.02098038501364e-06
"2409",0.0828088734765
"2410",3.006321004273e-05
"2411",0.0179572852973212
"2412",0.000385225785640264
"2413",0
"2414",0.00297089180698351
"2415",0
"2416",0.237696334591604
"2417",0.0149886040048417
"2418",0.00236437765111641
"2419",0.0156490416852949
"2420",0
"2421",0
"2422",1.8100382701558e-06
"2423",0.108292202244119
"2424",0.088850526261108
"2425",0.0104596549299395
"2426",0.296472662561802
"2427",0.0284814705756572
"2428",0.0690877848226099
"2429",0.000129134111462981
"2430",0.0877589896408959
"2431",0.011254461602428
"2432",0.00238587329765683
"2433",0.000648987681697299
"2434",0
"2435",0.00208819217234835
"2436",0.000222729572225133
"2437",0.0367787667208117
"2438",0.00629395141042166
"2439",0.0917523378082239
"2440",0.0373271413992173
"2441",0.082892688102166
"2442",0
"2443",0.000249508614841298
"2444",0.032097582670633
"2445",0.978589196550552
"2446",0.0248568417573278
"2447",0
"2448",0
"2449",7.66718745337513e-06
"2450",0.337817267470167
"2451",0.745284606750128
"2452",0.173396259407205
"2453",0.412770027863324
"2454",0.00306076324973314
"2455",0.530809113910236
"2456",2.26594041299322e-05
"2457",0.0693487857050645
"2458",0.513629203862878
"2459",0.0865732463121551
"2460",9.17542165468355e-07
"2461",0.579171676765691
"2462",0.212701926471355
"2463",0
"2464",0.566662453414181
"2465",2.95958885077052e-06
"2466",0.0275265981213447
"2467",8.96612784018203e-11
"2468",0.308523431336608
"2469",0.476639045892904
"2470",0.172235097816528
"2471",0.339123934820213
"2472",0.073606016908662
"2473",0.220259815049842
"2474",0.333546660205936
"2475",0
"2476",0.361922352973512
"2477",0.574249128655998
"2478",0.741241351588594
"2479",0.214117437137073
"2480",0.00655412779226938
"2481",0
"2482",0
"2483",4.44089209850063e-16
"2484",0.293017006948537
"2485",1.94649463292063e-06
"2486",0.240945840319035
"2487",0.00799271043114957
"2488",0.151661093306544
"2489",0.705193334125332
"2490",0
"2491",0
"2492",0.0118521266799856
"2493",0
"2494",0.119761081119833
"2495",0.00377065776695917
"2496",0.678788652365062
"2497",0.160159486589898
"2498",0.0230650001183595
"2499",0.0761576695818013
"2500",0.46277775711119
"2501",0.261148943435237
"2502",0.16752780842334
"2503",0.00940278122492599
"2504",0.044243889239278
"2505",0.66973415790301
"2506",0.199094824001994
"2507",0
"2508",0
"2509",0.815560310245952
"2510",0.278313422383607
"2511",0.590895819709659
"2512",1.97210420226357e-05
"2513",0.251185694839661
"2514",0.509659032936421
"2515",0.00701795856645215
"2516",0.33516403007818
"2517",0.472618827943571
"2518",0.266635841778577
"2519",0.00027417629899118
"2520",0.0020623208669337
"2521",0.09575620824483
"2522",3.81139564353816e-13
"2523",6.73138561340103e-05
"2524",0.022208459081185
"2525",0.314999617616585
"2526",0
"2527",1.05169959363494e-06
"2528",2.5918651309409e-05
"2529",0.000600615251847625
"2530",0
"2531",0
"2532",0.702821739154727
"2533",0.161239466326744
"2534",0.00797255976808464
"2535",2.40677547680423e-06
"2536",0.219651859302817
"2537",0.0768791264124176
"2538",0
"2539",0.038174851387584
"2540",6.26236210576891e-06
"2541",0.00432809872007722
"2542",0.127466806128269
"2543",0.0295252514157954
"2544",0.0944462583348853
"2545",3.09003258884832e-05
"2546",0
"2547",0.0421544139018249
"2548",0.164496256506113
"2549",0.160078185122916
"2550",0.00337800867831428
"2551",0.209569117739416
"2552",0
"2553",0.000823120036517411
"2554",0.016708254811347
"2555",0.123284850272546
"2556",0.432271213390673
"2557",0.052481135150094
"2558",0.31595199602647
"2559",0.00195931135593463
"2560",0.133243955651945
"2561",0.232520511474742
"2562",0.488831739966874
"2563",0.00209852161526103
"2564",5.33496113952481e-09
"2565",0.0509898930966269
"2566",0.00592739158824973
"2567",0.0366536047980355
"2568",4.79455061208611e-08
"2569",0
"2570",0.0328942815577353
"2571",0.105635260686702
"2572",0.00557159542003938
"2573",0.0293340609314265
"2574",0.0722667763630702
"2575",0.0313682898335775
"2576",0.000141713278680067
"2577",0.00974840383674491
"2578",0
"2579",0.225696529754037
"2580",0.228665086328051
"2581",0
"2582",0
"2583",0.233848361790917
"2584",0.849819202158135
"2585",0.137148748610447
"2586",0.000956928279118752
"2587",0.0213179738958376
"2588",0.000296862969738299
"2589",0.133001582465137
"2590",0.103599624535983
"2591",0.113810931689187
"2592",0.000571451720122962
"2593",0
"2594",0
"2595",0.0379234734104719
"2596",0
"2597",0.10605641333698
"2598",0.0471967142465124
"2599",3.56354078262511e-05
"2600",0.00855416142236498
"2601",0.00243352989242618
"2602",0.0112815168641387
"2603",0.00194165048514372
"2604",0.00222898963650719
"2605",0.223591600548924
"2606",0.000665146744462941
"2607",0.0035971399471999
"2608",0
"2609",0
"2610",2.59303271787914e-06
"2611",2.42242986925323e-05
"2612",0.00867707271578033
"2613",0.0570744270173797
"2614",0
"2615",0.0567309289553433
"2616",0.00164497313129819
"2617",0.0247207489695975
"2618",0.216043462927542
"2619",0
"2620",0.0214769872992953
"2621",0.223054222698958
"2622",0.00101292003638653
"2623",0.0916708189471578
"2624",0.0388346164153733
"2625",6.60879136196169e-05
"2626",1.17535313495232e-05
"2627",0.0313626651273721
"2628",0.03045437539611
"2629",0.154196036291345
"2630",0.0135800881283281
"2631",0.0199902755082664
"2632",1.90692160895178e-06
"2633",0.00677792767530905
"2634",0.187677584530786
"2635",0.0919276304116545
"2636",0.000126060172086939
"2637",0.032469603816922
"2638",0.00161974052339153
"2639",0.00786684014828409
"2640",2.21332171195243e-05
"2641",0.0104578492709205
"2642",0.0149811529103864
"2643",0.00124656434484294
"2644",0.00806637671986454
"2645",0.368620991151688
"2646",0
"2647",0
"2648",0.0143299346956298
"2649",0.402816657278757
"2650",0
"2651",0.00139409083544106
"2652",2.94020718882848e-09
"2653",0.0040561865265728
"2654",0.00314100852058874
"2655",0.0155869829855333
"2656",0.226022454729102
"2657",0.0597813564266104
"2658",0
"2659",0.214181221439125
"2660",2.92944512869653e-07
"2661",0.264797629718724
"2662",0.66348092904967
"2663",0
"2664",0.000567404227696078
"2665",0.000706142931088838
"2666",0.000400473626688713
"2667",0.00989077516615422
"2668",0.143763214822646
"2669",0.52557633198857
"2670",0.392185470058505
"2671",9.52337669835046e-08
"2672",0.0842696236149363
"2673",0.000190045136285066
"2674",0.0114153588330428
"2675",0.115331691223797
"2676",0.00313352660166455
"2677",0.137993058738858
"2678",0.0208046148203632
"2679",0.000923146678837972
"2680",0.0439817199978415
"2681",0.0407477458693059
"2682",2.79602797091938e-05
"2683",0.147767066906296
"2684",0.108627484543997
"2685",0.000263775346008521
"2686",0.409525004666272
"2687",0.0165141455079636
"2688",0.000334504054191886
"2689",0.150212120936453
"2690",0.591820584008149
"2691",0.277979780028285
"2692",0.00914508224156507
"2693",0
"2694",1.16981979658703e-11
"2695",0
"2696",0.00528573230638951
"2697",0.00057112285953631
"2698",0
"2699",0
"2700",0
"2701",2.78392864316857e-11
"2702",0.000142078511088939
"2703",5.61921552622024e-08
"2704",0.211010777624879
"2705",0.210857120415056
"2706",0.278145500744797
"2707",0.0035293248655125
"2708",0.717539742609289
"2709",0.21647109863969
"2710",0
"2711",0.000626662716887383
"2712",0.0876159792378296
"2713",0.000486459513208359
"2714",0.736351591226305
"2715",0.5002980652413
"2716",0
"2717",1.51900440622521e-05
"2718",0
"2719",0.128114273593111
"2720",0.000901446872722977
"2721",0
"2722",2.22273310868104e-10
"2723",0.0127020719564418
"2724",0.93217807530471
"2725",0.804749526317208
"2726",0.347511817073738
"2727",0
"2728",0.481294541871307
"2729",0.562892873418383
"2730",0.157160557599207
"2731",2.9226937958704e-05
"2732",0.658442379298621
"2733",0.34531195835042
"2734",0.0030588259993507
"2735",0.154640855075701
"2736",0.813552161169646
"2737",1.23320853528952e-09
"2738",6.98504665297417e-06
"2739",0.0217814465471624
"2740",1.4793377267619e-07
"2741",0.0214860387725172
"2742",0.000633892150566306
"2743",0
"2744",0.0498436229815884
"2745",0.0693839216023113
"2746",0.10664142856523
"2747",0
"2748",0.00235292911919072
"2749",0
"2750",0.0282540881634123
"2751",1.05301323216622e-11
"2752",0.561658206217949
"2753",0
"2754",0.127364130380933
"2755",0.327008041965272
"2756",0
"2757",0
"2758",0.058434876182389
"2759",0.315612597937744
"2760",0.0935202797732546
"2761",0.255741788963254
"2762",0.000188091438876103
"2763",0.00861645511356335
"2764",0
"2765",0
"2766",0.543697944299407
"2767",0.85881737969598
"2768",0.668923006987202
"2769",0.0209749696628642
"2770",0.00558933486416058
"2771",5.60795854198659e-12
"2772",0.000878943773036656
"2773",0.0468119765149131
"2774",0.547214515837982
"2775",0.568793487741933
"2776",0.229384049894669
"2777",0.528826588677681
"2778",0.310079243268279
"2779",0.751805099086359
"2780",2.38949970920999e-11
"2781",0
"2782",2.35118859270855e-07
"2783",0.189930539084935
"2784",0.076151400546465
"2785",0.999467042401588
"2786",0.992568705940198
"2787",0
"2788",0.679977597584708
"2789",1.96783100925302e-09
"2790",0.0451503509958211
"2791",0.240994699326969
"2792",0
"2793",0.110627649494204
"2794",0.314060085949609
"2795",8.3055784472208e-13
"2796",3.80837525959521e-08
"2797",0
"2798",0
"2799",0
"2800",0.33907761383884
"2801",0.572271726223196
"2802",0.788633634057852
"2803",0
"2804",0.017112605031246
"2805",0.000262614231646086
"2806",5.44009282066327e-15
"2807",0.164318893255893
"2808",0.222031669545494
"2809",0
"2810",0.000393827905796895
"2811",0.773400107422181
"2812",0
"2813",0
"2814",0.163978030426296
"2815",0
"2816",0.0666004645627262
"2817",0.712011192257596
"2818",0.898430627386191
"2819",0.85879926076734
"2820",0
"2821",0.17401073396745
"2822",0.705038217000909
"2823",0.717311036624522
"2824",0.218953744232815
"2825",0
"2826",0
"2827",0.290471840951941
"2828",0.00591854556069227
"2829",0.0734902549742219
"2830",0.0551716903357002
"2831",0
"2832",9.67588572768907e-05
"2833",0
"2834",0.902487134105538
"2835",0.00137021410677263
"2836",0.0417670836960565
"2837",0.795441936816217
"2838",0.515693345128611
"2839",3.33249157646875e-06
"2840",0.451090962243654
"2841",0.00259980331546095
"2842",0
"2843",0.10416636022694
"2844",0.176033254272545
"2845",0.0309969461758838
"2846",0.111802083213171
"2847",0.772013251175128
"2848",0.139114708562062
"2849",0
"2850",0.0023284015791204
"2851",0.002934018034632
"2852",0.358169105206214
"2853",0.403648856960085
"2854",0.0328793660475747
"2855",0.0718777320343533
"2856",0.173602781804525
"2857",0.173854798239997
"2858",0.25679353718561
"2859",0
"2860",0.24205900943798
"2861",0.0527338182748397
"2862",0.00797791039994766
"2863",5.01944075192995e-09
"2864",0.00326012463922831
"2865",0.480375601227542
"2866",0.0806440678361793
"2867",2.12751334938144e-06
"2868",0.117498800868957
"2869",0
"2870",0.00742579902076779
"2871",0.0140353117534994
"2872",3.71419837319475e-06
"2873",0.0228605484601477
"2874",0.000452827164031722
"2875",0
"2876",0.129061972045064
"2877",0.00165191477979276
"2878",0.000990008316210766
"2879",0.251087723125175
"2880",0.0229121934717158
"2881",0.583860952249925
"2882",1.42497125210639e-12
"2883",0.621487340518286
"2884",0.039272236380576
"2885",0.580717428305611
"2886",0.0727796199582015
"2887",9.51557429267336e-05
"2888",0
"2889",0.0514494065403156
"2890",5.16230214131497e-09
"2891",0.0382478711702682
"2892",1.50875978377485e-11
"2893",0
"2894",0.0196764667195216
"2895",0
"2896",0
"2897",0
"2898",0
"2899",0.0624523279535368
"2900",1.11022302462516e-15
"2901",0
"2902",0
"2903",0.00388073546578049
"2904",2.17907913935278e-11
"2905",0
"2906",0.463345255501874
"2907",0
"2908",0
"2909",0.354857310274354
"2910",6.54987529769002e-08
"2911",0
"2912",0
"2913",0
"2914",0.0158811912834685
"2915",0.284276432255017
"2916",1.12935757967669e-07
"2917",0
"2918",0
"2919",0
"2920",0
"2921",0
"2922",0
"2923",0.508852945572431
"2924",0
"2925",5.76061420787255e-12
"2926",0
"2927",0
"2928",0.21105413342217
"2929",0
"2930",0
"2931",0
"2932",0
"2933",0.0172800342908538
"2934",0.000192335595659121
"2935",4.90371539685341e-06
"2936",0
"2937",0
"2938",0.0495822428103749
"2939",0.0582323260401429
"2940",0.00964903504452186
"2941",0
"2942",0
"2943",0
"2944",0.0725870920735665
"2945",0.0144066996892387
"2946",0
"2947",0
"2948",0
"2949",0.102202136190079
"2950",3.45793244149739e-07
"2951",0
"2952",0
"2953",0.219248113976067
"2954",0
"2955",1.13109673516298e-07
"2956",0
"2957",0
"2958",0.198198416305311
"2959",0
"2960",0
"2961",0
"2962",0
"2963",0
"2964",0
"2965",0
"2966",0
"2967",1.20125382974123e-08
"2968",0
"2969",0
"2970",0
"2971",0.00892701900659632
"2972",3.50830475781549e-14
"2973",0.0118117923970632
"2974",0
"2975",0
"2976",0.10088463767902
"2977",0.00538940220750017
"2978",0.000119836290926045
"2979",0
"2980",0
"2981",0
"2982",0.0464375846747839
"2983",2.78636325123927e-09
"2984",0.00111645582362252
"2985",0.00017687725567872
"2986",0
"2987",0.000798629824938168
"2988",0
"2989",0.0410920113481704
"2990",0.0530660151034528
"2991",4.39111914607437e-08
"2992",0
"2993",0
"2994",0
"2995",0
"2996",0
"2997",0
"2998",0
"2999",4.44089209850063e-16
"3000",0
"3001",3.98624450290708e-05
"3002",0
"3003",0
"3004",0.669299502598934
"3005",9.66450963701959e-08
"3006",6.11966033403633e-12
"3007",0
"3008",0
"3009",0.102426673135261
"3010",0
"3011",0.168574575188159
"3012",7.53516060658654e-09
"3013",1.99840144432528e-14
"3014",2.1552792157653e-06
"3015",0
"3016",0.00612586327855125
"3017",0
"3018",0
"3019",8.19421869246995e-08
"3020",0
"3021",0
"3022",0
"3023",0
"3024",0
"3025",0.143497654621243
"3026",0
"3027",0.469451433554959
"3028",0.00155314808580587
"3029",0
"3030",0
"3031",0
"3032",0
"3033",0.0242449841575849
"3034",0
"3035",1.57212309837007e-09
"3036",0.6487029449819
"3037",0
"3038",0
"3039",0
"3040",0
"3041",0
"3042",0
"3043",0
"3044",0
"3045",0
"3046",0
"3047",0.103621465193604
"3048",0.0584005983404597
"3049",0.104221168351846
"3050",0.0194332838510063
"3051",0.00258302689539336
"3052",0.200787161892872
"3053",0.0135350962705517
"3054",0.286913072296539
"3055",1.11022302462516e-16
"3056",1.00385951773418e-08
"3057",0.112550277472124
"3058",0
"3059",0
"3060",0
"3061",0
"3062",0.420733325925732
"3063",0.784676635999352
"3064",0.133668932720904
"3065",0.253885820672538
"3066",0.000186420640591045
"3067",5.74803320829709e-07
"3068",0.00159046215791114
"3069",4.13002965160558e-14
"3070",0.0206599127688937
"3071",9.23134622743405e-07
"3072",0.273161016296677
"3073",0.000491965208182954
"3074",0.11379978533232
"3075",0.357482121916558
"3076",0.00636990493695377
"3077",0.131761193388447
"3078",0.0971276007495251
"3079",0
"3080",0.635661349927784
"3081",0.479056936105652
"3082",0
"3083",0
"3084",0
"3085",0
"3086",0
"3087",0
"3088",0
"3089",0
"3090",0
"3091",0
"3092",0
"3093",0
"3094",0
"3095",0
"3096",0
"3097",0
"3098",0
