"","x"
"1",2.3660304715456e-08
"2",8.87536088617358e-05
"3",0.152781123109926
"4",0.00828998319470375
"5",0.557197463311137
"6",0.565921383976234
"7",0.891531023659656
"8",0.364612007916528
"9",0.129598268797118
"10",0.979812008092204
"11",0.0109096243359771
"12",2.59763269228053e-07
"13",0.993696992720158
"14",0.423878742010984
"15",0.068846653857167
"16",0.00554146538119094
"17",0.000996394966679803
"18",0.00202039003075116
"19",0.104606175779126
"20",6.70480337916501e-11
"21",0.0349571383116828
"22",8.30335800117155e-12
"23",0.273293249289651
"24",0.0112830577867039
"25",0.921489038010588
"26",0.745292812901779
"27",3.04833675857097e-07
"28",0.98856279553862
"29",3.61932706027801e-14
"30",0.726834919749839
"31",0.128344855779603
"32",0.155516530598198
"33",0.737397748339293
"34",0.000489515324426204
"35",0.391762802118953
"36",0.911033096715533
"37",0.137384827648182
"38",0.251489260606661
"39",0.582561813922442
"40",0.919879978779827
"41",0.716259931614584
"42",0.171807760031912
"43",0.200609601603743
"44",0.0276404967642808
"45",1.92499186058015e-06
"46",5.2511706094549e-10
"47",1.77184416028098e-08
"48",0.465185952426937
"49",0.325971242770127
"50",0.00054193213111553
"51",0
"52",0.00590484354374754
"53",0.385850583186281
"54",0.430663259257242
"55",0.0391165383483767
"56",0.329444160965026
"57",0.000105273481250334
"58",1.39179347886653e-05
"59",0.631055734835297
"60",0.467890356930341
"61",0.525015246382396
"62",0.108252545701871
"63",0.436441637429463
"64",0.167496974097945
"65",0.838870045780609
"66",0.255524098616412
"67",0.187517957495317
"68",0.386542342327986
"69",0.150484921234681
"70",0.552647832776806
"71",0.0901173068146495
"72",0.0335728623263417
"73",0.931701513271076
"74",0.00848867358434535
"75",2.77165401740831e-09
"76",0.314034742530003
"77",0.00284138949837787
"78",0.439731201261548
"79",6.12143598877068e-06
"80",0.0345567108710165
"81",0.000958216283286517
"82",0
"83",3.17437302599366e-06
"84",0.0203734999514751
"85",0.0100441188729237
"86",0.0412589120676443
"87",0.904140958331081
"88",4.44089209850063e-16
"89",0.296793147429437
"90",2.18277532715305e-08
"91",0
"92",0
"93",0.471343318386468
"94",0.332083766376186
"95",1.24705801241021e-11
"96",0.69345283769171
"97",0.289945733991376
"98",0.00225184473391271
"99",0.0749486972887671
"100",0.000302198550334198
"101",4.24548662891766e-09
"102",2.31997882043089e-05
"103",0.359488845159117
"104",0.0187488001167945
"105",5.66818814107251e-11
"106",0.480249441967958
"107",0.440747977191347
"108",0
"109",0.00314554121251942
"110",0.00291963647604121
"111",0.0781759230363663
"112",0.00383594614935245
"113",9.36132649065335e-07
"114",0.384139053231697
"115",0.166205326565309
"116",0.078237517576494
"117",0.360192582765322
"118",0.690497120569301
"119",0.16142181136013
"120",0.845434010259277
"121",0
"122",0.0246720313650127
"123",0.0210016787066348
"124",0.963130197435038
"125",0.784076296821415
"126",0.661825045944008
"127",0.0325218369739334
"128",0.0814800356203709
"129",0
"130",2.99649147539327e-06
"131",0.00585463129490515
"132",0.581041067330424
"133",0.186908579167359
"134",0.0360383495374003
"135",0.131689301853458
"136",0
"137",0.00725238280676999
"138",0.199379941468297
"139",0.426273115289041
"140",0.42804266212431
"141",0.479672223092996
"142",0.66879707537778
"143",0
"144",0
"145",0
"146",0.0492494427526589
"147",0.451608863225533
"148",0.375451918693425
"149",0
"150",0.0578185339908877
"151",5.55111512312578e-15
"152",0.644299241185085
"153",0.00142512029718078
"154",0.0034114042872172
"155",4.74760897262172e-10
"156",0
"157",0.0802697117842361
"158",0.170897045403451
"159",0
"160",0.281560665284622
"161",0.331819212728892
"162",2.01875183236666e-11
"163",0
"164",0.857155579341423
"165",0.188940732206586
"166",0
"167",3.74548936310504e-09
"168",0.00622964385443947
"169",0.665316945463377
"170",0.0649247939216764
"171",1.31339383813156e-13
"172",0.00172587022092785
"173",0.896354780244126
"174",0.935870117619378
"175",0.133376141903242
"176",0.019792567136199
"177",0
"178",0.21262265956413
"179",0.172631603607638
"180",6.4311507230741e-09
"181",0.796347666305509
"182",3.21964677141295e-15
"183",0
"184",0.836501383562907
"185",0
"186",1.58934692027213e-05
"187",0.0841366067054459
"188",4.4717651803694e-10
"189",0.0121679586973769
"190",0
"191",1.09974764705978e-06
"192",0.815670959250727
"193",0.545084422708374
"194",9.99200722162641e-16
"195",4.29296819204339e-08
"196",0
"197",0.699558028805812
"198",0.191861286062604
"199",0.774593390794036
"200",0.000942963852263334
"201",0.0564696910865997
"202",0.0207801804253259
"203",0.139275808892632
"204",0.702745141460719
"205",0.216983846255988
"206",0
"207",0
"208",0.0222835663875162
"209",2.85601534968372e-05
"210",0.302624412828088
"211",0
"212",0.111412182711773
"213",9.40136857252583e-13
"214",0.000111069434516442
"215",0.308753957220276
"216",0.261669186078368
"217",0.146032433274827
"218",0.0417868654191035
"219",0
"220",0.166576028008494
"221",0.0871682319572349
"222",7.80087660595674e-05
"223",0
"224",0.0561136800874555
"225",0.110344533339068
"226",1.17651731879054e-06
"227",5.55111512312578e-15
"228",0.743972570497434
"229",0.049822370220619
"230",2.9196013492383e-06
"231",6.84025402986066e-09
"232",0.748959965362737
"233",1.27453603226968e-13
"234",0
"235",0
"236",0.717577565693326
"237",0.558313557397577
"238",0.887601126179935
"239",0.010898834992618
"240",0
"241",0.841297816185527
"242",0.056714152417156
"243",0.429272858135829
"244",3.73034936274053e-14
"245",0.0626131572689825
"246",3.66664587581056e-10
"247",0.263372164571927
"248",0.212092941717974
"249",0.086933997959561
"250",0.0687752673281462
"251",0.174400174345799
"252",0.0888601858967806
"253",9.88211580332798e-06
"254",0
"255",0
"256",0.0589409248206033
"257",0.0541414226599146
"258",0.925988623213929
"259",0
"260",0
"261",0.0118280120734553
"262",0.023731614215122
"263",0.0563251382263408
"264",0.681253553375629
"265",0.279040526328236
"266",0.0645369658943489
"267",0
"268",0
"269",0.058178810091347
"270",0.0463064895749294
"271",0.0729401494881926
"272",0.176094558629998
"273",0.184261946841289
"274",0.00245152124486891
"275",0
"276",0
"277",3.21964677141295e-15
"278",0.000679445405218471
"279",0.064978511869964
"280",0.0976614465776665
"281",0.0245423705875567
"282",0.0601274622809745
"283",0.519947793323084
"284",0.00013007839166157
"285",0
"286",0.244538764965159
"287",0.076774879868977
"288",0.533318299515189
"289",0.095224763324595
"290",2.42779452097608e-09
"291",0.0104335667732346
"292",6.97213702438582e-07
"293",0.0957070710867486
"294",0.0301137458875206
"295",0.238397220743471
"296",0
"297",0
"298",0.823723187551951
"299",0.426731114760685
"300",0.359286353419722
"301",0.300251807440088
"302",0
"303",0.000690206526529624
"304",0.164447076884817
"305",0.271354055523521
"306",0.121064924757931
"307",0.469309141061444
"308",0
"309",0.00338424756304279
"310",0.404148176214838
"311",0
"312",0.248486157517588
"313",0.218436648994511
"314",0.41531342080098
"315",1.20223161426125e-07
"316",0
"317",0.000888836960529549
"318",0.365869647783844
"319",0
"320",0.0360538690541046
"321",0.221976226094798
"322",0.753391890057934
"323",0.0454553207265178
"324",0.381495336328801
"325",0
"326",0
"327",0.00122653416634921
"328",0.653090762969798
"329",1.28929488282248e-05
"330",9.73781462754175e-05
"331",0.301214045279902
"332",0.451698382639301
"333",0.0270328936698081
"334",0.092846547041101
"335",0.148352047606953
"336",0.018016003254566
"337",0.0188617484244201
"338",0.673409891702407
"339",0.146367881550533
"340",0.00130669398414107
"341",0.0588681366150771
"342",0.00674849635482322
"343",0
"344",0.0312255103045711
"345",0
"346",0.000401130170532893
"347",0
"348",0
"349",1.66425762060385e-11
"350",0.0111208966994069
"351",0
"352",8.8035840105638e-06
"353",0.315866936306022
"354",0.0699397906988144
"355",0
"356",0
"357",0.00280347113740698
"358",3.47377810794303e-06
"359",0.964203880282073
"360",0.014375766022054
"361",0.00414497652093337
"362",0.332053751506502
"363",0.011580608962021
"364",0.420724091370076
"365",0.543077730098906
"366",0.148398522682596
"367",0
"368",0
"369",0.0214349789077847
"370",1.99901345842024e-05
"371",0
"372",0
"373",2.75234516444733e-06
"374",8.53017660300548e-05
"375",0
"376",0.708312204758971
"377",0.0489909382313712
"378",0.0367083038619491
"379",0.578377794786741
"380",0.00550560345308093
"381",0.538979544175866
"382",0.261207504036995
"383",0
"384",4.64085618268051e-07
"385",1.66622041696263e-05
"386",2.77215584163493e-05
"387",0.00417866316227711
"388",0.00715127838387719
"389",0.123098607955813
"390",7.7380768459534e-11
"391",0
"392",0
"393",9.80386218984997e-07
"394",2.20875103762452e-08
"395",0
"396",0
"397",0
"398",0.242635974000947
"399",0.000365727065281374
"400",0.174142159773851
"401",0.0657669259218109
"402",0.792298784850696
"403",0.134928616543056
"404",0.175862357106672
"405",0
"406",0.00841120719962252
"407",0.171942765258696
"408",0.52151110932644
"409",0.713651718033809
"410",2.22044604925031e-16
"411",0.127697271299509
"412",0.845148565850266
"413",2.6783179770562e-05
"414",0.00030790993353158
"415",0
"416",0.332865737302691
"417",0.203916589792978
"418",2.91546019548505e-08
"419",0.26918376511392
"420",6.62616220570289e-06
"421",0
"422",0.0347027745317242
"423",0.048150585789517
"424",0.111885301504932
"425",5.70243859302488e-05
"426",0.677810563236339
"427",0.23182175367848
"428",0.43984879268126
"429",0.375245675654891
"430",0.107869052838785
"431",0
"432",0
"433",0.0878776947456232
"434",0
"435",0
"436",0
"437",0
"438",2.69236170002962e-05
"439",3.17094287151098e-05
"440",1.13165032900042e-12
"441",0.936701389130443
"442",7.7715611723761e-15
"443",0.159423562214595
"444",0.0172194062202283
"445",0
"446",0
"447",0
"448",0.0330142728262901
"449",0.858316969630206
"450",0.598121815326597
"451",0.287960010665504
"452",0
"453",0.025639297051484
"454",0
"455",0.000522164114867718
"456",0.446421425445584
"457",3.99680288865056e-15
"458",5.91265645888406e-07
"459",0.000176842898768736
"460",0
"461",0.646875801847451
"462",0
"463",0.0154712955869792
"464",0.000155099609833953
"465",0.00361110257502784
"466",0.144562402372067
"467",0.00835241283862875
"468",0.00586358622330896
"469",0.00465766814452806
"470",0
"471",0.679501437731967
"472",0.451738562553588
"473",0.121661801478735
"474",0.796022307067916
"475",0
"476",0
"477",0
"478",0
"479",0.10496598761826
"480",0.516169743945669
"481",0.16196550678677
"482",0
"483",2.11528143378992e-06
"484",0
"485",1.11022302462516e-15
"486",0.00652846118434736
"487",0.31607354290969
"488",0.453304026336952
"489",3.0142555118573e-13
"490",0.316796636961053
"491",0.0792307575036204
"492",0.00153293795635578
"493",0
"494",0
"495",0.177011610124275
"496",3.20589814362116e-07
"497",0.125429164238089
"498",0.0705416293087536
"499",0.00154514065150846
"500",0.827489056774949
"501",0.19787236700029
"502",0
"503",0
"504",0.0818281285176236
"505",0.760384914050088
"506",0.035729373384996
"507",0.439908710908712
"508",1.47920601323293e-08
"509",2.1094237467878e-15
"510",0.0090737927942337
"511",0.270028719119676
"512",0.179669361456198
"513",0
"514",4.75164352309321e-12
"515",0.310093609165242
"516",0.0178265453174247
"517",0.123252037486679
"518",0.285306840266649
"519",0.812535091535779
"520",0.186181947558151
"521",2.38271542496449e-08
"522",0.00150632957407271
"523",0.153416288064922
"524",0.295520033981728
"525",0
"526",8.50150476251477e-05
"527",6.91668944341473e-14
"528",0.0381368796693397
"529",0.00149056094982158
"530",0.0630107957900651
"531",0.296156727200371
"532",0.0943111695727014
"533",0.00737389255413545
"534",0.270517093433059
"535",0
"536",0.662522076551174
"537",0.015620363032616
"538",0.00645266468287498
"539",9.83546577515426e-13
"540",0.0740570468557364
"541",0.0846014339808561
"542",0.036930854758189
"543",0.764315076430304
"544",0.157462260014164
"545",0
"546",0.259941691244256
"547",0.332882582201074
"548",0.0176585826358866
"549",0.00214909498009896
"550",0.0996194297767036
"551",8.9783926737752e-08
"552",0.101735374163574
"553",0.222408232053533
"554",0.13235070526145
"555",0.166363537024445
"556",0.269704104743553
"557",0.0255639142901944
"558",0
"559",0.00647236750089286
"560",0.00261894333318213
"561",0.0766894216502526
"562",0.765205189362756
"563",0.0264243974461837
"564",0.634622718161112
"565",9.45618356027467e-05
"566",0.0476115800085379
"567",0.000223605872393007
"568",0.0440976100007682
"569",0.00269010838559824
"570",4.94839212639153e-06
"571",0
"572",0.0249388128994987
"573",0.0562672259951411
"574",0.330030924832082
"575",0.185163996966573
"576",6.6110072046488e-05
"577",0.024495994806457
"578",0.175500539601397
"579",0.00134975355026479
"580",0.258122125744744
"581",0
"582",0.0363265569825321
"583",1.46054503995519e-05
"584",0.00133521766082356
"585",3.30082722121983e-06
"586",0.215479114263576
"587",0.431059047672011
"588",0.446079701638974
"589",0.00282768986493975
"590",0.00218020092279614
"591",0.11808246063676
"592",0.0283036450255516
"593",8.47556672622929e-08
"594",0.0943971665051723
"595",5.2804981498511e-09
"596",0.192285822662167
"597",2.03541131726936e-08
"598",0.678672997522511
"599",0.179182108065771
"600",0.378197088937283
"601",0.603883223761744
"602",1.76184014044622e-08
"603",0.456805937108699
"604",6.11842682074482e-08
"605",0
"606",0
"607",0.104909608806707
"608",0.895763609689447
"609",0.84288711122714
"610",0.00809989974281877
"611",9.45710159738766e-07
"612",0
"613",0.0128855003868219
"614",0.256321085458984
"615",0.000417482742764097
"616",0.00846489599617517
"617",0.127472006715345
"618",0.0152121532804006
"619",0.0541064536610751
"620",2.69784194983913e-14
"621",0.155447262411638
"622",0.0851146971474326
"623",0.384809508053362
"624",0.117945360299095
"625",0
"626",0
"627",1.11022302462516e-16
"628",0.057658748368193
"629",0.0469552382797594
"630",0.0247659902541116
"631",0.651155911362824
"632",0.857182687547923
"633",0.000786097853908485
"634",0.0204604601930833
"635",0.0900068552656035
"636",0.239375985736247
"637",0.839191895569246
"638",0.00740261171375922
"639",0.601525425017392
"640",0.0247139173086839
"641",0.0171532746720384
"642",0
"643",3.68407971652607e-05
"644",0.0675664771411481
"645",0
"646",0.0158198057596615
"647",0.720529023284893
"648",3.46684325691626e-09
"649",0.155115209664576
"650",0.0111951528296623
"651",6.01673972301375e-05
"652",0.052017840945385
"653",0.0108407059193222
"654",5.46229728115577e-14
"655",0.0104818848291268
"656",0.000159246507976385
"657",0.219606528558734
"658",4.59243298944756e-09
"659",0.00157417822682748
"660",2.88242685275719e-09
"661",2.78572529694987e-05
"662",0.321933031097471
"663",0.454245534871069
"664",0.402515855365915
"665",0.124066084804896
"666",0.130979220718252
"667",0.154362721050128
"668",0.127110001933292
"669",8.88178419700125e-16
"670",0.610467733963537
"671",0.903563801265222
"672",0.0126687698235984
"673",0.184367575755275
"674",1.70410365818441e-08
"675",0.446891832461282
"676",0
"677",5.36882018631335e-06
"678",0.300660955470007
"679",0.126484958922279
"680",0.0395981838019347
"681",0.00876021122526571
"682",0.000225030549331207
"683",0.036525613249857
"684",0.00533767063829693
"685",0.36781954856635
"686",0.00164126507871176
"687",0
"688",0.0836627467333906
"689",0.205113612938196
"690",0.104198188936051
"691",0.217900684043507
"692",0.373080148361134
"693",0
"694",0.0650823653751573
"695",0.22370910296633
"696",0.149507610670593
"697",0.22921095484984
"698",0.00259775246074345
"699",0.00082702019394032
"700",0.0369277491689357
"701",0.247430222334951
"702",0.155830140988317
"703",0.561385397002925
"704",0.0542792255790242
"705",0.883637975000599
"706",0
"707",0.529953510462961
"708",0.972979767699826
"709",0.495473598849865
"710",0
"711",0.158449633210115
"712",0.167257396922805
"713",0.120569874079415
"714",0.0107071748563764
"715",6.37412406007121e-05
"716",0.677336165435089
"717",0.140759527528321
"718",0.0635340625077605
"719",0.421954429876984
"720",0.878934371144444
"721",0.0343264998084079
"722",0.0249245351638676
"723",0.00397006587598281
"724",0
"725",0.0597757828700189
"726",0.0449169442840955
"727",9.44277596373055e-05
"728",0.000766643323106941
"729",0.211602010649973
"730",0.763418664885185
"731",0.894769730632874
"732",0.0251257221778376
"733",0.877645492286866
"734",0.360283988437293
"735",0.000142695413299698
"736",0.158639086018568
"737",0.20876535307792
"738",0.617862870627295
"739",0.2981123428899
"740",0.781625162805958
"741",0.309737767169738
"742",3.11572077480449e-05
"743",0.6864657546758
"744",0.361772457312613
"745",0.219472221469081
"746",0.219555144954718
"747",0.203566451834152
"748",0.00210370235731672
"749",0.199185017366233
"750",0.0100985024075427
"751",0.982892479448392
"752",0.434699700598463
"753",0.0632876695250715
"754",0.582178001505906
"755",0.812680715518733
"756",0.125836113694521
"757",0.103275902475377
"758",0.0190704925842567
"759",3.85902088062551e-10
"760",0.0181329217695807
"761",0.0420377282570946
"762",0.217717064404469
"763",0.0414010176412359
"764",0.065259642613227
"765",0.452340842912065
"766",0.0484423340482801
"767",0.137737739617665
"768",0.000698935798975953
"769",0.0088317214582142
"770",0.0411856198131711
"771",0.0202036920319782
"772",0.236979022174137
"773",0.640472604745953
"774",0.00361085856038557
"775",0
"776",3.31834559830213e-12
"777",0.0752638304506072
"778",0.00281357166170926
"779",0.0329491747801917
"780",0.31703241899718
"781",0.243186648202759
"782",0.154674374585828
"783",0.000109333121067423
"784",0.0454560932867598
"785",0.15451230026128
"786",0.0338476606732793
"787",0.13127803581281
"788",0.230841897906966
"789",4.77477334743792e-05
"790",0.00147049362684071
"791",0.000952966219327056
"792",0.0210160445871281
"793",0.0013710505468395
"794",0.216227356762446
"795",8.93237645388512e-05
"796",2.59392507473422e-12
"797",0.00265091417324848
"798",5.2590876098435e-10
"799",0.0462512804039862
"800",0.00283554029498245
"801",1.17594572635049e-07
"802",0.186505548793283
"803",8.0468013701207e-06
"804",0.000269605502933645
"805",7.5048672686262e-05
"806",0.00500825508094882
"807",5.16870933386926e-07
"808",2.9871638496104e-10
"809",0.00156335767805882
"810",0
"811",0.0727061014245995
"812",0.0942309514876319
"813",4.22608339767372e-07
"814",0.00925582124565405
"815",6.44112618353176e-07
"816",8.66177378178179e-06
"817",0.10179550166673
"818",0.146175204394968
"819",7.83933219450361e-08
"820",0.000207136418243992
"821",0.0734276876121899
"822",3.11217328130553e-07
"823",1.17187255279649e-05
"824",0.00146323350459532
"825",0.135862881975845
"826",0.000234829995796715
"827",0.0445961447174481
"828",6.22323685339765e-06
"829",0.00457056760801056
"830",2.150279954094e-12
"831",0.000426677351575311
"832",0.000336905542045018
"833",0.142712656636823
"834",5.6528149623758e-05
"835",0.0540834186458024
"836",0.290405412186304
"837",0.224983055347856
"838",0
"839",0.665721872224035
"840",0.100040383720802
"841",4.66890495660621e-05
"842",0.0343852008091337
"843",0.000265101362853293
"844",0.107034176956286
"845",0
"846",4.20631541764305e-05
"847",0.286299298578375
"848",0.101014179110509
"849",0.113179644566863
"850",0.192078579225164
"851",0.942710778348749
"852",0.798323070134391
"853",0.0864288204351982
"854",0.603674352901142
"855",0.216951535495151
"856",0.584494467828061
"857",0.0427989439292785
"858",0.000339075684101853
"859",0.050531801366009
"860",0.0113722176571572
"861",5.87999916978887e-07
"862",0.00693940865036125
"863",0.0148534816661432
"864",0.0299999745529412
"865",0.276821740805932
"866",0.0646940028682147
"867",0.000455415145835136
"868",0.00110377743845158
"869",0.0219197451155945
"870",0.380079643746112
"871",0.458439174858903
"872",0.0052596062810808
"873",9.37144178436711e-06
"874",0.764134769410819
"875",0.115457845534501
"876",0.107768510526446
"877",0.242099373126763
"878",0.0136343770538069
"879",0.399097614115976
"880",0.826719481267004
"881",0.281348946352513
"882",0.818243446780633
"883",0.606761624234313
"884",0.77090507004978
"885",0.0134890423483625
"886",0.0273989765336872
"887",0.791089096443291
"888",0.0270417952895037
"889",0.00178718715790327
"890",0.00943560196243287
"891",0.00272174572672745
"892",0
"893",0.0438501652607803
"894",0.0317223213822381
"895",0.100626418637144
"896",1.55431223447522e-15
"897",0.0246308029473361
"898",0.672457284787055
"899",0.596819653365514
"900",0.770633253665801
"901",0.719068343763394
"902",0.697789932860953
"903",0.0512339555207171
"904",0.470847369583227
"905",0.00678947849161071
"906",0.359029528705731
"907",0.032212935742381
"908",0.229642536339476
"909",0.301904709317558
"910",0
"911",0.0967040109021118
"912",0.992956621064145
"913",0.377679100233752
"914",0.00342146736357107
"915",0.0068481656092988
"916",0.813476289982184
"917",0.947923025943239
"918",0.85409889325205
"919",0.670369524414224
"920",0.600062559164108
"921",0.909651959378923
"922",0.416344198200802
"923",0.849238005703614
"924",0.424039635615016
"925",0.470769331402844
"926",0.785199315548202
"927",0.157056696990251
"928",0.753172421096298
"929",0.280251194510503
"930",1.48632502983137e-06
"931",1.56578501275817e-08
"932",0.00139565991468049
"933",0.116636913789754
"934",0.446696959918561
"935",0
"936",0.615417567816975
"937",0.681062032326434
"938",1.73320580110214e-10
"939",0.395782732304579
"940",0.000165865019176037
"941",5.6798196146346e-09
"942",0.0177973191102679
"943",7.49869468847919e-05
"944",0
"945",0
"946",0.00506109426709311
"947",0.32943620382578
"948",0.319119428343154
"949",0.746749564748914
"950",0.233328582149739
"951",0.00421341248571183
"952",0.765517873345993
"953",0.266165501161877
"954",0.233577739196771
"955",0.834592457893368
"956",0.0430486934987443
"957",0.539500584216113
"958",0.206305461711125
"959",0.000527666338517419
"960",0.127330922953073
"961",0.348444488882796
"962",0.00760175524584905
"963",0.000696623200455826
"964",0.000553127904853401
"965",0.189660253209761
"966",0.119451568233168
"967",0.0356246172553437
"968",0.205957377266682
"969",7.08741600075058e-07
"970",0
"971",0
"972",0.0176018109665852
"973",0.00481581996919733
"974",0.00444830635464877
"975",0.858383809727671
"976",0.0013689352958044
"977",0
"978",0
"979",0.0200936402069437
"980",0.129570537370436
"981",0
"982",0.00629156365686157
"983",0.835362865773254
"984",0.458669067859234
"985",0.0429356123533954
"986",6.32876973050145e-10
"987",0
"988",0.0241509190845033
"989",0.120163576613698
"990",0.120422431910566
"991",0.366294831901407
"992",0.000288534978731381
"993",0.644298979324686
"994",0.178283266959163
"995",0.065960115869239
"996",2.58237875527811e-13
"997",0.0215439375481961
"998",0.0150543009427396
"999",4.34056583887843e-05
"1000",0.0422303277780667
"1001",7.95139262478317e-05
"1002",0.060937874181634
"1003",0.2645510540194
"1004",0.140162615421848
"1005",0.113580467887771
"1006",0.0112734641322836
"1007",0.455098485214541
"1008",0.237294381206323
"1009",0.235983863284969
"1010",3.10973469197506e-13
"1011",0.00577222355233997
"1012",0
"1013",0.0325860680633898
"1014",0.00171408621890545
"1015",0.000176663967968116
"1016",0
"1017",0.0109832065158135
"1018",0.582396972537173
"1019",0
"1020",3.22696042109882e-08
"1021",0.000312608706701911
"1022",0.00156760553177648
"1023",0.0153312418388324
"1024",1.67172942155958e-11
"1025",0
"1026",0.171916287722741
"1027",0.0135553521059502
"1028",0.0632555077482857
"1029",0.220299864770944
"1030",2.77234663015324e-05
"1031",8.88178419700125e-16
"1032",3.77518630501061e-06
"1033",0.673275347694269
"1034",0.410808701779886
"1035",0.495671843613573
"1036",0.053698018001488
"1037",0.24105153604199
"1038",0.685070485398827
"1039",0.267684158854196
"1040",0.0280499144370658
"1041",0.235059188442985
"1042",0.4739247599574
"1043",0.0227984445646902
"1044",0.267854519794361
"1045",0.692968189294051
"1046",0.00336490188333027
"1047",0.00111088214292576
"1048",3.93558838251984e-06
"1049",0.00521281283007058
"1050",0.14829440114353
"1051",0.0389918286075488
"1052",3.49564865942398e-09
"1053",9.00900090416989e-06
"1054",0
"1055",0.000460420181494059
"1056",0.43251908501956
"1057",7.60362026674954e-07
"1058",0.000340404971503228
"1059",0.00166610314434634
"1060",5.22311829920241e-05
"1061",0.428989141089925
"1062",0.154053064358356
"1063",8.42301913295262e-06
"1064",0.000229743921702052
"1065",0.167847159127868
"1066",0.0212485671194186
"1067",0.699413371490455
"1068",0.121476159219272
"1069",0.0424568279194806
"1070",0.0175216196661006
"1071",0.620210185446993
"1072",0.919547945085905
"1073",0.462334813067707
"1074",0.173150219790093
"1075",2.66453525910038e-15
"1076",0.229907206235306
"1077",0.0195221524426177
"1078",0.319107854619818
"1079",3.08643111068818e-11
"1080",0.370496582124775
"1081",0.00216107665606136
"1082",0.150836779282421
"1083",8.3771101166974e-11
"1084",0.0067995786429722
"1085",0.11915545317837
"1086",0.324671035245188
"1087",0.193303334337066
"1088",0.777251437158754
"1089",0.000480840266484761
"1090",0.720662643786366
"1091",0.903537145082582
"1092",0.355278512675409
"1093",0.826632839861463
"1094",1.59627026441456e-06
"1095",0.198756885014849
"1096",0.112773816335
"1097",0.0917211313790078
"1098",0.0340929032999188
"1099",0.127659317219286
"1100",0.0633914888183411
"1101",0.15654455015818
"1102",0.000118288808481193
"1103",0.00051058273334581
"1104",0.704842516691983
"1105",0.245478213700769
"1106",8.25744144172802e-07
"1107",0.00489061915049738
"1108",0.431685956377337
"1109",0.921729217447499
"1110",0.240786813818241
"1111",9.51069223376066e-11
"1112",0.00012365437909001
"1113",0.0815639715946067
"1114",0.0796738039535456
"1115",5.39569645654492e-05
"1116",0
"1117",0.00170097502008226
"1118",0.613894920732367
"1119",0.127471709775573
"1120",0.605912309717619
"1121",0.0260029050327928
"1122",0.0407272928218455
"1123",0.0637202718221956
"1124",0.0865574168590807
"1125",0.337998801083083
"1126",0.52437938065647
"1127",0.106849196130388
"1128",0.0847104332099857
"1129",0.0893893751243957
"1130",0.000838866785589754
"1131",0.300200717751633
"1132",3.33066907387547e-16
"1133",4.10622721959131e-05
"1134",0.00697782351720044
"1135",0.118600423689692
"1136",3.69114839214868e-05
"1137",0.101361958480385
"1138",0.00172097459473042
"1139",0.00266220737608003
"1140",0
"1141",0.00632025162210392
"1142",8.89791562652675e-08
"1143",0.195333454723902
"1144",0.412277062161937
"1145",0.045644190989291
"1146",0.137329240801299
"1147",0.089565270653277
"1148",0.0331692527689345
"1149",0.0571844892788875
"1150",0.287808421079629
"1151",0.000411778830462062
"1152",0.330651366739522
"1153",0.121931301478119
"1154",0
"1155",0.144531987804085
"1156",0.414734977275541
"1157",0.248781289259203
"1158",0
"1159",0.000181164214810847
"1160",0.0419528967937057
"1161",3.07967237479501e-05
"1162",3.00498112610903e-05
"1163",0.176748322185709
"1164",0.0468968609549134
"1165",0.000222452087553893
"1166",0.116459621390754
"1167",0.00313474563591032
"1168",0.00875854687530131
"1169",0
"1170",0.031161027456662
"1171",0.289970999791763
"1172",2.94312352266957e-11
"1173",0.670000163430463
"1174",0.072063825455808
"1175",0.0827728221127253
"1176",0
"1177",0.933664046850133
"1178",0.0307682449028709
"1179",0.0275360797825556
"1180",0.862519924657243
"1181",0.270471139884569
"1182",0.39558191588519
"1183",0.586156193974587
"1184",0.215135706419533
"1185",0.0320894050258698
"1186",0
"1187",0.081696499999774
"1188",0.742705233651378
"1189",0.205579742778168
"1190",0.971720635492979
"1191",0.185842478484562
"1192",0.0825010225644077
"1193",0.151206940217913
"1194",0.100980588471864
"1195",0.00233981557924845
"1196",0.108010104319889
"1197",0.122878406896371
"1198",0.159651627536851
"1199",1.89332466460357e-05
"1200",0.0201650750234063
"1201",0
"1202",0
"1203",0
"1204",0
"1205",0
"1206",0
"1207",0
"1208",0
"1209",0
"1210",0
"1211",0
"1212",0
"1213",0
"1214",0
"1215",0
"1216",0
"1217",0
"1218",0
"1219",0
"1220",0
"1221",0
"1222",0
"1223",0
"1224",0
"1225",0
"1226",0
"1227",0
"1228",0
"1229",0
"1230",0
"1231",0
"1232",0
"1233",0
"1234",0
"1235",0
"1236",0
"1237",0
"1238",0
"1239",0
"1240",0
"1241",0
"1242",0
"1243",0
"1244",0
"1245",0
"1246",0
"1247",0
"1248",0
"1249",0
"1250",0
"1251",0
"1252",0
"1253",0
"1254",0
"1255",0
"1256",0
"1257",0
"1258",0
"1259",0
"1260",0
"1261",0
"1262",0
"1263",0
"1264",0
"1265",0
"1266",0
"1267",0
"1268",0
"1269",0
"1270",0
"1271",0
"1272",0
"1273",0
"1274",0
"1275",0
"1276",0
"1277",0
"1278",0
"1279",0
"1280",0
"1281",0
"1282",0
"1283",0
"1284",0
"1285",0
"1286",0
"1287",0
"1288",0
"1289",0
"1290",0
"1291",0
"1292",0
"1293",0
"1294",0
"1295",0
"1296",0
"1297",0
"1298",0
"1299",0
"1300",0
"1301",0
"1302",0
"1303",0
"1304",0
"1305",0
"1306",0
"1307",0
"1308",0
"1309",0
"1310",0
"1311",0
"1312",0
"1313",0
"1314",0
"1315",0
"1316",0
"1317",0
"1318",0
"1319",0
"1320",0
"1321",0
"1322",0
"1323",0
"1324",0
"1325",0
"1326",0
"1327",0
"1328",0
"1329",0
"1330",0
"1331",0
"1332",0
"1333",0
"1334",0
"1335",0
"1336",0
"1337",0
"1338",0
"1339",0
"1340",0
"1341",0
"1342",0
"1343",0
"1344",0
"1345",0
"1346",0
"1347",0
"1348",0
"1349",0
"1350",0
"1351",0
"1352",0
"1353",0
"1354",0
"1355",0
"1356",0
"1357",0
"1358",0
"1359",0
"1360",0
"1361",0
"1362",0
"1363",0
"1364",0
"1365",0
"1366",0
"1367",0
"1368",0
"1369",0
"1370",0
"1371",0
"1372",0
"1373",0
"1374",0
"1375",0
"1376",0
"1377",0
"1378",0
"1379",0
"1380",0
"1381",0
"1382",0
"1383",0
"1384",0
"1385",0
"1386",0
"1387",0
"1388",0
"1389",0
"1390",0
"1391",0
"1392",0
"1393",0
"1394",0
"1395",0
"1396",0
"1397",0
"1398",0
"1399",0
"1400",0
"1401",0
"1402",0
"1403",0
"1404",0
"1405",0
"1406",0
"1407",0
"1408",0
"1409",0
"1410",0
"1411",0
"1412",0
"1413",0
"1414",0
"1415",0
"1416",0
"1417",0
"1418",0
"1419",0
"1420",0
"1421",0
"1422",0
"1423",0
"1424",0
"1425",0
"1426",0
"1427",0
"1428",0
"1429",0
"1430",0
"1431",0
"1432",0
"1433",0
"1434",0
"1435",0
"1436",0
"1437",0
"1438",0
"1439",0
"1440",0
"1441",0
"1442",0
"1443",0
"1444",0
"1445",0
"1446",0
"1447",0
"1448",0
"1449",0
"1450",0
"1451",0
"1452",0
"1453",0
"1454",0
"1455",0
"1456",0
"1457",0
"1458",0
"1459",0
"1460",0
"1461",0
"1462",0
"1463",0
"1464",0
"1465",0
"1466",0
"1467",0
"1468",0
"1469",0
"1470",0
"1471",0
"1472",0
"1473",0
"1474",0
"1475",0
"1476",0
"1477",0
"1478",0
"1479",0
"1480",0
"1481",0
"1482",0
"1483",0
"1484",0
"1485",0
"1486",0
"1487",0
"1488",0
"1489",0
"1490",0
"1491",0
"1492",0
"1493",0
"1494",0
"1495",0
"1496",0
"1497",0
"1498",0
"1499",0
"1500",0
"1501",0
"1502",0
"1503",0
"1504",0
"1505",0
"1506",0
"1507",0
"1508",0
"1509",0
"1510",0
"1511",0
"1512",0
"1513",0
"1514",0
"1515",0
"1516",0
"1517",0
"1518",0
"1519",0
"1520",0
"1521",0
"1522",0
"1523",0
"1524",0
"1525",0
"1526",0
"1527",0
"1528",0
"1529",0
"1530",0
"1531",0
"1532",0
"1533",0
"1534",0
"1535",0
"1536",0
"1537",0
"1538",0
"1539",0
"1540",0
"1541",0
"1542",0
"1543",0
"1544",0
"1545",0
"1546",0
"1547",0
"1548",0
"1549",0
"1550",0
"1551",0
"1552",0
"1553",0
"1554",0
"1555",0
"1556",0
"1557",0
"1558",0
"1559",0
"1560",0
"1561",0
"1562",0
"1563",0
"1564",0
"1565",0
"1566",0
"1567",0
"1568",0
"1569",0
"1570",0
"1571",0
"1572",0
"1573",0
"1574",0
"1575",0
"1576",0
"1577",0
"1578",0
"1579",0
"1580",0
"1581",0
"1582",0
"1583",0
"1584",0
"1585",0
"1586",0
"1587",0
"1588",0
"1589",0
"1590",0
"1591",0
"1592",0
"1593",0
"1594",0
"1595",0
"1596",0
"1597",0
"1598",0
"1599",0
"1600",0
"1601",0
"1602",0
"1603",0
"1604",0
"1605",0
"1606",0
"1607",0
"1608",0
"1609",0
"1610",0
"1611",0
"1612",0
"1613",0
"1614",0
"1615",0
"1616",0
"1617",0
"1618",0
"1619",0
"1620",0
"1621",0
"1622",0
"1623",0
"1624",0
"1625",0
"1626",0
"1627",0
"1628",0
"1629",0
"1630",0
"1631",0
"1632",0
"1633",0
"1634",0
"1635",0
"1636",0
"1637",0
"1638",0
"1639",0
"1640",0
"1641",0
"1642",0
"1643",0
"1644",0
"1645",0
"1646",0
"1647",0
"1648",0
"1649",0
"1650",0
"1651",0
"1652",0
"1653",0
"1654",0
"1655",0
"1656",0
"1657",0
"1658",0
"1659",0
"1660",0
"1661",0
"1662",0
"1663",0
"1664",0
"1665",0
"1666",0
"1667",0
"1668",0
"1669",0
"1670",0
"1671",0
"1672",0
"1673",0
"1674",0
"1675",0
"1676",0
"1677",0
"1678",0
"1679",0
"1680",0
"1681",0
"1682",0
"1683",0
"1684",0
"1685",0
"1686",0
"1687",0
"1688",0
"1689",0
"1690",0
"1691",0
"1692",0
"1693",0
"1694",0
"1695",0
"1696",0
"1697",0
"1698",0
"1699",0
"1700",0
"1701",0
"1702",0
"1703",0
"1704",0
"1705",0
"1706",0
"1707",0
"1708",0
"1709",0
"1710",0
"1711",0
"1712",0
"1713",0
"1714",0
"1715",0
"1716",0
"1717",0
"1718",0
"1719",0
"1720",0
"1721",0
"1722",0
"1723",0
"1724",0
"1725",0
"1726",0
"1727",0
"1728",0
"1729",0
"1730",0
"1731",0
"1732",0
"1733",0
"1734",0
"1735",0
"1736",0
"1737",0
"1738",0
"1739",0
"1740",0
"1741",0
"1742",0
"1743",0
"1744",0
"1745",0
"1746",0
"1747",0
"1748",0
"1749",0
"1750",0
"1751",0
"1752",0
"1753",0
"1754",0
"1755",0
"1756",0
"1757",0
"1758",0
"1759",0
"1760",0
"1761",0
"1762",0
"1763",0
"1764",0
"1765",0
"1766",0
"1767",0
"1768",0
"1769",0
"1770",0
"1771",0
"1772",0
"1773",0
"1774",0
"1775",0
"1776",0
"1777",0
"1778",0
"1779",0
"1780",0
"1781",0
"1782",0
"1783",0
"1784",0
"1785",0
"1786",0
"1787",0
"1788",0
"1789",0
"1790",0
"1791",0
"1792",0
"1793",0
"1794",0
"1795",0
"1796",0
"1797",0
"1798",0
"1799",0
"1800",0
"1801",0
"1802",0
"1803",0
"1804",0
"1805",0
"1806",0
"1807",0
"1808",0
"1809",0
"1810",0
"1811",0
"1812",0
"1813",0
"1814",0
"1815",0
"1816",0
"1817",0
"1818",0
"1819",0
"1820",0
"1821",0
"1822",0
"1823",0
"1824",0
"1825",0
"1826",0
"1827",0
"1828",0
"1829",0
"1830",0
"1831",0
"1832",0
"1833",0
"1834",0
"1835",0
"1836",0
"1837",0
"1838",0
"1839",0
"1840",0
"1841",0
"1842",0
"1843",0
"1844",0
"1845",0
"1846",0
"1847",0
"1848",0
"1849",0
"1850",0
"1851",0
"1852",0
"1853",0
"1854",0
"1855",0
"1856",0
"1857",0
"1858",0
"1859",0
"1860",0
"1861",0
"1862",0
"1863",0
"1864",0
"1865",0
"1866",0
"1867",0
"1868",0
"1869",0
"1870",0
"1871",0
"1872",0
"1873",0
"1874",0
"1875",0
"1876",0
"1877",0
"1878",0
"1879",0
"1880",0
"1881",0
"1882",0
"1883",0
"1884",0
"1885",0
"1886",0
"1887",0
"1888",0
"1889",0
"1890",0
"1891",0
"1892",0
"1893",0
"1894",0
"1895",0
"1896",0
"1897",0
"1898",0
"1899",0
"1900",0
"1901",0
"1902",0
"1903",0
"1904",0
"1905",0
"1906",0
"1907",0
"1908",0
"1909",0
"1910",0
"1911",0
"1912",0
"1913",0
"1914",0
"1915",0
"1916",0
"1917",0
"1918",0
"1919",0
"1920",0
"1921",0
"1922",0
"1923",0
"1924",0
"1925",0
"1926",0
"1927",0
"1928",0
"1929",0
"1930",0
"1931",0
"1932",0
"1933",0
"1934",0
"1935",0
"1936",0
"1937",0
"1938",0
"1939",0
"1940",0
"1941",0
"1942",0
"1943",0
"1944",0
"1945",0
"1946",0
"1947",0
"1948",0
"1949",0
"1950",0
"1951",0
"1952",0
"1953",0
"1954",0
"1955",0
"1956",0
"1957",0
"1958",0
"1959",0
"1960",0
"1961",0
"1962",0
"1963",0
"1964",0
"1965",0
"1966",0
"1967",0
"1968",0
"1969",0
"1970",0
"1971",0
"1972",0
"1973",0
"1974",0
"1975",0
"1976",0
"1977",0
"1978",0
"1979",0
"1980",0
"1981",0
"1982",0
"1983",0
"1984",0
"1985",0
"1986",0
"1987",0
"1988",0
"1989",0
"1990",0
"1991",0
"1992",0
"1993",0
"1994",0
"1995",0
"1996",0
"1997",0
"1998",0
"1999",0
"2000",0
"2001",0
"2002",0
"2003",0
"2004",0
"2005",0
"2006",0
"2007",0
"2008",0
"2009",0
"2010",0
"2011",0
"2012",0
"2013",0
"2014",0
"2015",0
"2016",0
"2017",0
"2018",0
"2019",0
"2020",0
"2021",0
"2022",0
"2023",0
"2024",0
"2025",0
"2026",0
"2027",0
"2028",0
"2029",0
"2030",0
"2031",0
"2032",0
"2033",0
"2034",0
"2035",0
"2036",0
"2037",0
"2038",0
"2039",0
"2040",0
"2041",0
"2042",0
"2043",0
"2044",0
"2045",0
"2046",0
"2047",0
"2048",0
"2049",0
"2050",0
"2051",0
"2052",0
"2053",0
"2054",0
"2055",0
"2056",0
"2057",0
"2058",0
"2059",0
"2060",0
"2061",0
"2062",0
"2063",0
"2064",0
"2065",0
"2066",0
"2067",0
"2068",0
"2069",0
"2070",0
"2071",0
"2072",0
"2073",0
"2074",0
"2075",0
"2076",0
"2077",0
"2078",0
"2079",0
"2080",0
"2081",0
"2082",0
"2083",0
"2084",0
"2085",0
"2086",0
"2087",0
"2088",0
"2089",0
"2090",0
"2091",0
"2092",0
"2093",0
"2094",0
"2095",0
"2096",0
"2097",0
"2098",0
"2099",0
"2100",0
"2101",0
"2102",0
"2103",0
"2104",0
"2105",0
"2106",0
"2107",0
"2108",0
"2109",0
"2110",0
"2111",0
"2112",0
"2113",0
"2114",0
"2115",0
"2116",0
"2117",0
"2118",0
"2119",0
"2120",0
"2121",0
"2122",0
"2123",0
"2124",0
"2125",0
"2126",0
"2127",0
"2128",0
"2129",0
"2130",0
"2131",0
"2132",0
"2133",0
"2134",0
"2135",0
"2136",0
"2137",0
"2138",0
"2139",0
"2140",0
"2141",0
"2142",0
"2143",0
"2144",0
"2145",0
"2146",0
"2147",0
"2148",0
"2149",0
"2150",0
"2151",0
"2152",0
"2153",0
"2154",0
"2155",0
"2156",0
"2157",0
"2158",0
"2159",0
"2160",0
"2161",0
"2162",0
"2163",0
"2164",0
"2165",0
"2166",0
"2167",0
"2168",0
"2169",0
"2170",0
"2171",0
"2172",0
"2173",0
"2174",0
"2175",0
"2176",0
"2177",0
"2178",0
"2179",0
"2180",0
"2181",0
"2182",0
"2183",0
"2184",0
"2185",0
"2186",0
"2187",0
"2188",0
"2189",0
"2190",0
"2191",0
"2192",0
"2193",0
"2194",0
"2195",0
"2196",0
"2197",0
"2198",0
"2199",0
"2200",0
"2201",0
"2202",0
"2203",0
"2204",0
"2205",0
"2206",0
"2207",0
"2208",0
"2209",0
"2210",0
"2211",0
"2212",0
"2213",0
"2214",0
"2215",0
"2216",0
"2217",0
"2218",0
"2219",0
"2220",0
"2221",0
"2222",0
"2223",0
"2224",0
"2225",0
"2226",0
"2227",0
"2228",0
"2229",0
"2230",0
"2231",0
"2232",0
"2233",0
"2234",0
"2235",0
"2236",0
"2237",0
"2238",0
"2239",0
"2240",0
"2241",0
"2242",0
"2243",0
"2244",0
"2245",0
"2246",0
"2247",0
"2248",0
"2249",0
"2250",0
"2251",0
"2252",0
"2253",0
"2254",0
"2255",0
"2256",0
"2257",0
"2258",0
"2259",0
"2260",0
"2261",0
"2262",0
"2263",0
"2264",0
"2265",0
"2266",0
"2267",0
"2268",0
"2269",0
"2270",0
"2271",0
"2272",0
"2273",0
"2274",0
"2275",0
"2276",0
"2277",0
"2278",0
"2279",0
"2280",0
"2281",0
"2282",0
"2283",0
"2284",0
"2285",0
"2286",0
"2287",0
"2288",0
"2289",0
"2290",0
"2291",0
"2292",0
"2293",0
"2294",0
"2295",0
"2296",0
"2297",0
"2298",0
"2299",0
"2300",0
"2301",0
"2302",0
"2303",0
"2304",0
"2305",0
"2306",0
"2307",0
"2308",0
"2309",0
"2310",0
"2311",0
"2312",0
"2313",0
"2314",0
"2315",0
"2316",0
"2317",0
"2318",0
"2319",0
"2320",0
"2321",0
"2322",0
"2323",0
"2324",0
"2325",0
"2326",0
"2327",0
"2328",0
"2329",0
"2330",0
"2331",0
"2332",0
"2333",0
"2334",0
"2335",0
"2336",0
"2337",0
"2338",0
"2339",0
"2340",0
"2341",0
"2342",0
"2343",0
"2344",0
"2345",0
"2346",0
"2347",0
"2348",0
"2349",0
"2350",0
"2351",0
"2352",0
"2353",0
"2354",0
"2355",0
"2356",0
"2357",0
"2358",0
"2359",0
"2360",0
"2361",0
"2362",0
"2363",0
"2364",0
"2365",0
"2366",0
"2367",0
"2368",0
"2369",0
"2370",0
"2371",0
"2372",0
"2373",0
"2374",0
"2375",0
"2376",0
"2377",0
"2378",0
"2379",0
"2380",0
"2381",0
"2382",0
"2383",0
"2384",0
"2385",0
"2386",0
"2387",0
"2388",0
"2389",0
"2390",0
"2391",0
"2392",0
"2393",0
"2394",0
"2395",0
"2396",0
"2397",0
"2398",0
"2399",0
"2400",0
"2401",0
"2402",0
"2403",0
"2404",0
"2405",0
"2406",0
"2407",0
"2408",0
"2409",0
"2410",0
"2411",0
"2412",0
"2413",0
"2414",0
"2415",0
"2416",0
"2417",0
"2418",0
"2419",0
"2420",0
"2421",0
"2422",0
"2423",0
"2424",0
"2425",0
"2426",0
"2427",0
"2428",0
"2429",0
"2430",0
"2431",0
"2432",0
"2433",0
"2434",0
"2435",0
"2436",0
"2437",0
"2438",0
"2439",0
"2440",0
"2441",0
"2442",0
"2443",0
"2444",0
"2445",0
"2446",0
"2447",0
"2448",0
"2449",0
"2450",0
"2451",0
"2452",0
"2453",0
"2454",0
"2455",0
"2456",0
"2457",0
"2458",0
"2459",0
"2460",0
"2461",0
"2462",0
"2463",0
"2464",0
"2465",0
"2466",0
"2467",0
"2468",0
"2469",0
"2470",0
"2471",0
"2472",0
"2473",0
"2474",0
"2475",0
"2476",0
"2477",0
"2478",0
"2479",0
"2480",0
"2481",0
"2482",0
"2483",0
"2484",0
"2485",0
"2486",0
"2487",0
"2488",0
"2489",0
"2490",0
"2491",0
"2492",0
"2493",0
"2494",0
"2495",0
"2496",0
"2497",0
"2498",0
"2499",0
"2500",0
"2501",0
"2502",0
"2503",0
"2504",0
"2505",0
"2506",0
"2507",0
"2508",0
"2509",0
"2510",0
"2511",0
"2512",0
"2513",0
"2514",0
"2515",0
"2516",0
"2517",0
"2518",0
"2519",0
"2520",0
"2521",0
"2522",0
"2523",0
"2524",0
"2525",0
"2526",0
"2527",0
"2528",0
"2529",0
"2530",0
"2531",0
"2532",0
"2533",0
"2534",0
"2535",0
"2536",0
"2537",0
"2538",0
"2539",0
"2540",0
"2541",0
"2542",0
"2543",0
"2544",0
"2545",0
"2546",0
"2547",0
"2548",0
"2549",0
"2550",0
"2551",0
"2552",0
"2553",0
"2554",0
"2555",0
"2556",0
"2557",0
"2558",0
"2559",0
"2560",0
"2561",0
"2562",0
"2563",0
"2564",0
"2565",0
"2566",0
"2567",0
"2568",0
"2569",0
"2570",0
"2571",0
"2572",0
"2573",0
"2574",0
"2575",0
"2576",0
"2577",0
"2578",0
"2579",0
"2580",0
"2581",0
"2582",0
"2583",0
"2584",0
"2585",0
"2586",0
"2587",0
"2588",0
"2589",0
"2590",0
"2591",0
"2592",0
"2593",0
"2594",0
"2595",0
"2596",0
"2597",0
"2598",0
"2599",0
"2600",0
"2601",0
"2602",0
"2603",0
"2604",0
"2605",0
"2606",0
"2607",0
"2608",0
"2609",0
"2610",0
"2611",0
"2612",0
"2613",0
"2614",0
"2615",0
"2616",0
"2617",0
"2618",0
"2619",0
"2620",0
"2621",0
"2622",0
"2623",0
"2624",0
"2625",0
"2626",0
"2627",0
"2628",0
"2629",0
"2630",0
"2631",0
"2632",0
"2633",0
"2634",0
"2635",0
"2636",0
"2637",0
"2638",0
"2639",0
"2640",0
"2641",0
"2642",0
"2643",0
"2644",0
"2645",0
"2646",0
"2647",0
"2648",0
"2649",0
"2650",0
"2651",0
"2652",0
"2653",0
"2654",0
"2655",0
"2656",0
"2657",0
"2658",0
"2659",0
"2660",0
"2661",0
"2662",0
"2663",0
"2664",0
"2665",0
"2666",0
"2667",0
"2668",0
"2669",0
"2670",0
"2671",0
"2672",0
"2673",0
"2674",0
"2675",0
"2676",0
"2677",0
"2678",0
"2679",0
"2680",0
"2681",0
"2682",0
"2683",0
"2684",0
"2685",0
"2686",0
"2687",0
"2688",0
"2689",0
"2690",0
"2691",0
"2692",0
"2693",0
"2694",0
"2695",0
"2696",0
"2697",0
"2698",0
"2699",0
"2700",0
"2701",0
"2702",0
"2703",0
"2704",0
"2705",0
"2706",0
"2707",0
"2708",0
"2709",0
"2710",0
"2711",0
"2712",0
"2713",0
"2714",0
"2715",0
"2716",0
"2717",0
"2718",0
"2719",0
"2720",0
"2721",0
"2722",0
"2723",0
