"","x"
"1",0
"2",5.88418203051333e-15
"3",0.0376370960081022
"4",8.74978278497807e-07
"5",0.000655652240869609
"6",0.000298569286493966
"7",0.0736224019581938
"8",0.0002735725303048
"9",0.00448314247078219
"10",0.631116274587516
"11",0
"12",0
"13",0.949766703654791
"14",0
"15",0
"16",1.9284573937739e-13
"17",0
"18",4.12534306873935e-05
"19",0
"20",0
"21",0.0167014798664714
"22",0
"23",0.00159451772840413
"24",0.000878289451995418
"25",0.68564255589942
"26",0.372323016939122
"27",0
"28",0.955364054090835
"29",0
"30",0.125051243618103
"31",0.0158915579237235
"32",0.0975470568759411
"33",0.278009914894908
"34",1.2204829580198e-05
"35",0.419276252044767
"36",0.813486706293923
"37",7.55173701350031e-13
"38",0.0055373445925988
"39",0.201702371980417
"40",0.908348822312919
"41",0.342839867017982
"42",4.50331277271898e-05
"43",0.00221344553213532
"44",0
"45",0
"46",0
"47",0
"48",0.00659878064942476
"49",0.0542702105609826
"50",8.69309935147555e-09
"51",0
"52",0
"53",0.0115159297760092
"54",0.00118648552566492
"55",0
"56",3.77718442794439e-05
"57",0
"58",0
"59",0.308717090720407
"60",0.309141286320422
"61",0.310270661511013
"62",9.11715147822179e-13
"63",0.000318928571518384
"64",0.0192386488144677
"65",0.561615758468336
"66",0.132649565701563
"67",0.0294718376138829
"68",1.95177207729103e-13
"69",0.049678183002518
"70",0.0375399569498238
"71",5.17150944822076e-05
"72",6.38007519182526e-06
"73",0.763438263258294
"74",0
"75",0
"76",5.83791812569512e-06
"77",0
"78",4.1650516813263e-08
"79",0
"80",7.03270514046395e-07
"81",0.000238807134019359
"82",0
"83",0
"84",0
"85",2.47107845297023e-09
"86",0.00433718369571845
"87",1.72171943368937e-10
"88",0
"89",0.000149115275020151
"90",0
"91",0
"92",0
"93",0.000136555027656304
"94",0.173813381086856
"95",0
"96",0.182905705996847
"97",0.0293353149446208
"98",4.21972062724096e-05
"99",1.36624045410372e-12
"100",4.20441459425547e-13
"101",0
"102",0
"103",0.0382850168387201
"104",1.76974014812759e-05
"105",0
"106",0.0536498523714219
"107",0.0656957972663187
"108",0
"109",0.000350695688209779
"110",1.09201758746735e-10
"111",0.00308957344722594
"112",0.00404291201088947
"113",0
"114",0.00566970197568128
"115",1.7327774604059e-07
"116",0
"117",0.1256036215195
"118",0.319979167063818
"119",0.0157573983499322
"120",0.457286235647661
"121",0
"122",2.73595163633455e-05
"123",0
"124",0.964220017971832
"125",0.0378378600385574
"126",7.34723040453078e-05
"127",4.96988006304377e-11
"128",0.00552056949256496
"129",0
"130",1.11022302462516e-16
"131",0
"132",0.400076249418585
"133",0.0441539781751621
"134",0.00456947349031533
"135",0.108212575421078
"136",0
"137",3.59712259978551e-14
"138",0.000280075484341946
"139",0.211152350548228
"140",0.406655576416496
"141",0.309148937029078
"142",0.222549253104427
"143",0
"144",0
"145",0
"146",0.0440888970474086
"147",0.362638582401637
"148",0.00318247427252316
"149",0
"150",0.00480939138554071
"151",0
"152",0.41863923438472
"153",0.000259627259638684
"154",0.000271935521950595
"155",0
"156",0
"157",0.00858095820563087
"158",0.00336753842365045
"159",0
"160",0.0111949823730684
"161",0.155365635107124
"162",0
"163",0
"164",0.829954047675564
"165",0.0282742778824652
"166",0
"167",0
"168",0.0025069492783738
"169",0.599957121727287
"170",0.0094440484285373
"171",0
"172",2.95974890632822e-05
"173",0.770457792919121
"174",0.891006589178939
"175",0.146818027578556
"176",0.0176667209918986
"177",0
"178",0.0199761551569232
"179",0.0216133633620144
"180",0
"181",0.523671447777343
"182",0
"183",0
"184",0.722446318307935
"185",0
"186",0
"187",0.0025248914600442
"188",0
"189",0.00846235436619747
"190",0
"191",0
"192",0.504613779902819
"193",0.359325772884161
"194",0
"195",0
"196",0
"197",0.507754070456721
"198",0.117810608711617
"199",0.840227989138795
"200",0.00126937572517527
"201",0.0133077563434473
"202",0.00252804705732435
"203",2.03773856454204e-05
"204",0.734292792513805
"205",0.176468223163384
"206",0
"207",0
"208",0.0126987493636866
"209",4.48664712143776e-05
"210",0.353711770204709
"211",0
"212",0.000280394461745992
"213",0
"214",0
"215",0.236575100541925
"216",0.297847410485053
"217",0.150762679398184
"218",0.034602994760239
"219",0
"220",0.00652698392937923
"221",0.0402760090581569
"222",0
"223",0
"224",0.00661832273161411
"225",0.0393567964241965
"226",0
"227",0
"228",3.0862366251494e-07
"229",1.37678665121932e-05
"230",5.6173954376959e-12
"231",0
"232",0.74712585718925
"233",0
"234",0
"235",0
"236",0.543913759785105
"237",0.488960095269598
"238",0.665358086293613
"239",2.8389924273009e-05
"240",0
"241",0.797758793936057
"242",0.0677267688866018
"243",0.479514792520816
"244",0
"245",0.00835832619834975
"246",0
"247",0.254436155994151
"248",0.224919315037321
"249",0.0474737870677429
"250",6.15984125262869e-07
"251",0.000299485042206893
"252",0.00531188498275847
"253",0
"254",0
"255",0
"256",0.0404684228538851
"257",0.0168618603333459
"258",0.897038137307623
"259",0
"260",0
"261",0.00316689913180435
"262",0.0243354730231023
"263",0.0603235613599956
"264",0.598448438831467
"265",0.332729810272156
"266",0.0328870004301882
"267",0
"268",0
"269",0.0435614129560615
"270",0.0316725493385179
"271",0.03256847284838
"272",0.100593452088123
"273",6.32827124036339e-15
"274",0
"275",0
"276",0
"277",0
"278",0
"279",1.85185200507476e-13
"280",0.0101598245044208
"281",2.02051634201617e-06
"282",0.00696607769069957
"283",0.1659891874303
"284",4.48833303856588e-10
"285",0
"286",0.0327382356455386
"287",0.0196355237097902
"288",0.472392527957537
"289",0.00949418820111148
"290",0
"291",5.69809781580943e-08
"292",0
"293",0.0373466347454449
"294",0.0124469821794654
"295",0.11342217277677
"296",0
"297",0
"298",0.418028748968663
"299",0.510357636960471
"300",0.387531870642983
"301",0.0970813374514308
"302",0
"303",0
"304",0.00301492568784623
"305",0.311433138968919
"306",0.041414613603823
"307",0.0545523708403568
"308",0
"309",0
"310",0.0343484554340978
"311",0
"312",0.0630205258626484
"313",0.157323515760408
"314",0.453485923169928
"315",0
"316",0
"317",1.56078916457858e-09
"318",0.068659833140597
"319",0
"320",0.000761432512684124
"321",0.221293308684675
"322",0.584575287961534
"323",0.0309754356663625
"324",0.253895027761534
"325",0
"326",0
"327",2.77555756156289e-15
"328",0.400523365811984
"329",0
"330",0
"331",0.294460995215016
"332",0.39740186288713
"333",0.0192079627303704
"334",3.68094422746879e-05
"335",0.126142169603537
"336",1.66477616636573e-06
"337",4.37212574455614e-06
"338",0.263676047415164
"339",6.1557355690578e-06
"340",2.6609225841856e-05
"341",0.0328727278332694
"342",4.0260266737091e-06
"343",0
"344",1.4645212480513e-06
"345",0
"346",1.55431223447522e-15
"347",0
"348",0
"349",0
"350",1.08568709578094e-12
"351",0
"352",0
"353",0.21067976546686
"354",0.0105877877111022
"355",0
"356",0
"357",0
"358",3.40416583810565e-12
"359",0.937037992007544
"360",0.00191237744925943
"361",1.84722386245006e-05
"362",0.0115550557097238
"363",0.000809286235819884
"364",0.0297296966059578
"365",0.408141463640018
"366",0.000878889307902586
"367",0
"368",0
"369",0.00236481196074589
"370",1.08273390253544e-11
"371",0
"372",0
"373",1.0325074129014e-13
"374",4.9680821678777e-09
"375",0
"376",0.466188305475518
"377",0.0599908876524331
"378",0.0189885611882733
"379",0.000220280051438038
"380",4.73939416600899e-08
"381",0.315191383932026
"382",0.0740353411066654
"383",0
"384",0
"385",1.48051793047443e-10
"386",1.52544643583497e-12
"387",7.66709866839577e-05
"388",0.000198205183602695
"389",0.000189876809852385
"390",0
"391",0
"392",0
"393",0
"394",0
"395",0
"396",0
"397",0
"398",0.0558562524497459
"399",1.98775175136445e-05
"400",0.141108223075032
"401",0.00839726656997886
"402",0.382439181379465
"403",0.0845331321417091
"404",0.0792412208798081
"405",0
"406",0
"407",7.82048546033032e-07
"408",0.560196696461081
"409",0.650684664102637
"410",0
"411",0.0815319594645978
"412",0.757810654815279
"413",1.27591492926626e-10
"414",5.57376542698051e-08
"415",0
"416",0.170221950869969
"417",0.00953164732089018
"418",0
"419",0.000915963996917402
"420",0
"421",0
"422",0
"423",7.84418107024898e-06
"424",0.0346163373343802
"425",2.22044604925031e-16
"426",0.536790099027254
"427",0.214395846441999
"428",0.29772861185346
"429",0.259467787007269
"430",0.0190860790635906
"431",0
"432",0
"433",9.36605195323015e-06
"434",0
"435",0
"436",0
"437",0
"438",0
"439",0
"440",0
"441",0.908576949809112
"442",0
"443",3.39557180344396e-05
"444",1.07829279560878e-06
"445",0
"446",0
"447",0
"448",5.27575348560072e-05
"449",0.121929595436603
"450",0.164629853762369
"451",0.00106667562680907
"452",0
"453",9.03433621446403e-06
"454",0
"455",5.17329037463821e-06
"456",0.269920317144019
"457",0
"458",0
"459",1.99359341257477e-08
"460",0
"461",0.466580246105076
"462",0
"463",0
"464",3.34442473715058e-11
"465",0
"466",0.0195433090461644
"467",0.000114808308651515
"468",3.35797588990605e-06
"469",6.83977007398529e-06
"470",0
"471",0.2889221687756
"472",0.207122118858977
"473",0.0198406239537712
"474",0.631317144086744
"475",0
"476",0
"477",0
"478",0
"479",0.131655433437334
"480",0.433321642899717
"481",0.113811302184098
"482",0
"483",0
"484",0
"485",0
"486",0.00492908517632307
"487",0.207750491385137
"488",0.288717429499076
"489",0
"490",0.147753926226938
"491",0.0284989630465896
"492",0.000507913796268689
"493",0
"494",0
"495",0.0937378675026417
"496",6.66133814775094e-16
"497",0.0639274161587526
"498",8.27285549953594e-07
"499",2.26008863528637e-05
"500",0.727346500830086
"501",0.01044270771375
"502",0
"503",0
"504",0.0623902013158899
"505",0.688236192471369
"506",0.021619881348419
"507",0.166660791624897
"508",0
"509",0
"510",1.59225355123027e-09
"511",0.23599955672068
"512",0.105926334578273
"513",0
"514",0
"515",0.293625658836716
"516",0.0078187402854456
"517",0.104977542674955
"518",0.264098676644331
"519",0.711791563962201
"520",3.91469084504159e-05
"521",0
"522",0.00171511938534064
"523",0.138542574075544
"524",0.274958588934902
"525",0
"526",0
"527",0
"528",0.020096617524487
"529",0
"530",0.00640381844749049
"531",0.293890106027285
"532",0.093121325610579
"533",0.00424468533740308
"534",6.92079112907251e-08
"535",0
"536",4.69691954390061e-05
"537",5.1689763580498e-12
"538",1.16351372980716e-12
"539",0
"540",0.0201196924514141
"541",0.0475244984008849
"542",0.0177513659151625
"543",0.670190728509871
"544",0.139024687044891
"545",0
"546",0.150930178317714
"547",0.321304959545174
"548",0.00522881008228282
"549",0.00161296756563756
"550",0.0777572930290193
"551",0
"552",0.0365616979078802
"553",0.17178152719567
"554",0.0210527882957714
"555",0.129024547087652
"556",0.254230951613589
"557",0.000946637675613204
"558",0
"559",1.4432899320127e-15
"560",1.83387961161241e-06
"561",0.050358524419357
"562",0.813584156077359
"563",0.00241671721854775
"564",0.369787112880138
"565",7.46820383312752e-10
"566",4.40360336528833e-06
"567",2.06538588876093e-05
"568",0.0148175068015511
"569",0.000262895565810828
"570",1.60527147130551e-11
"571",0
"572",0.0110570843460489
"573",0.029238070414606
"574",0.379934559837707
"575",0.0609119621281611
"576",0
"577",0.00891393469222812
"578",0.0906364512114071
"579",0.000644604659053361
"580",0.0128032114460597
"581",0
"582",0.0141439421632286
"583",1.11022302462516e-16
"584",0.000915684157138941
"585",1.95586416729121e-07
"586",0.0875864911792575
"587",0.190833066864177
"588",0.368955535699949
"589",0.00252955630331331
"590",0.00092058215237778
"591",0.00339791857479299
"592",0.0129101924761186
"593",4.44089209850063e-16
"594",0.00481387597197647
"595",0
"596",0.118862116760278
"597",0
"598",0.745915789902109
"599",0.0270384565222583
"600",0.268056571572264
"601",0.629653187738908
"602",0
"603",0.494726640730064
"604",0
"605",0
"606",0
"607",0.0401770987526106
"608",0.869336110356679
"609",0.447902898809826
"610",0
"611",0
"612",0
"613",0.00637582923880398
"614",0.232086269471848
"615",0
"616",0
"617",0.0131716717021997
"618",0.000758836514552996
"619",0.0242841295517577
"620",0
"621",0.122376882703668
"622",0.0721717734670563
"623",0.358502593814302
"624",0.0671876814742847
"625",0
"626",0
"627",0
"628",0.052332171296686
"629",0.0199176408129296
"630",0.0209768423698019
"631",0.257370593661046
"632",0.678628647559793
"633",0.000192778482827061
"634",0.00556208245444456
"635",0.0345240955761451
"636",0.209254497845923
"637",0.754067350947782
"638",5.57554002966754e-13
"639",0.469792413888431
"640",0.0104677408053788
"641",0.000104736746457945
"642",0
"643",0
"644",0.0858692504530214
"645",0
"646",0.00313745479294947
"647",0.460514451114592
"648",5.00619545817926e-11
"649",0.0555090738584705
"650",0.00416851321378509
"651",1.67865721323324e-13
"652",0.0216210547952957
"653",1.37973654538159e-05
"654",0
"655",0.00221774334359826
"656",8.08242361927114e-14
"657",0.227047983275115
"658",0
"659",4.61741378465774e-09
"660",0
"661",0
"662",0.289778518567577
"663",3.80495634999534e-12
"664",3.03619603483352e-05
"665",0.0392571165843297
"666",0.137726196750412
"667",0.0942380712582734
"668",0.151594590090215
"669",0
"670",0.424054716494821
"671",0.729063317275174
"672",0.0160578294504539
"673",0.139052592568715
"674",0
"675",0.316735568620876
"676",0
"677",8.88178419700125e-16
"678",0.245746851091587
"679",0.116596211376087
"680",0
"681",4.48935203601897e-05
"682",2.22044604925031e-16
"683",0.0350311775392281
"684",0.00390746733243186
"685",1.94203001568916e-07
"686",1.11022302462516e-16
"687",0
"688",0.0483510400506409
"689",0.000884124600363356
"690",0.00382148864206855
"691",0.0342435337486158
"692",0.0420715998968059
"693",0
"694",7.59250906590125e-08
"695",0.0299985919229279
"696",0.053560043802828
"697",0.00837100863691032
"698",0
"699",1.31897381905333e-10
"700",0.0664907461579486
"701",0.00619357073851778
"702",0.0107081071555544
"703",0.398092514108292
"704",0.00290165713369972
"705",0.550190010642232
"706",0
"707",0.249362781998741
"708",0.712953414721784
"709",0.193345457324867
"710",0
"711",0.0151596235924272
"712",0.0386112105611512
"713",0.00212039830055499
"714",0.000417977296805594
"715",0
"716",0.329612148971723
"717",5.81893355722229e-08
"718",0.0050987158021607
"719",0.289562622001716
"720",0.761035195558066
"721",0.0154650654997226
"722",8.79591699476379e-08
"723",0.00371575775517297
"724",0
"725",0
"726",7.3630064750474e-05
"727",1.40998324127395e-14
"728",1.39873010446268e-05
"729",0.00193021161321261
"730",0.537536561520801
"731",0.484982942681479
"732",4.28666743657047e-07
"733",0.58820183678179
"734",0.190935995875938
"735",2.23548336664159e-06
"736",0.00970230538853034
"737",0.21448569258635
"738",0.126524646648655
"739",0.16329454309506
"740",3.71305463042759e-08
"741",0.000240069280000199
"742",0
"743",0.0120273504439701
"744",0.00106948530503703
"745",0
"746",3.49878664063219e-05
"747",0.0207533341059505
"748",9.7586160432428e-06
"749",0.0577974978994394
"750",1.58788904247587e-09
"751",0.888148268537929
"752",0.218747336062333
"753",0.00142533579361592
"754",0.234196290646905
"755",0.587785914797015
"756",0.00849619238729127
"757",0.0447206160043625
"758",0.000472119329955611
"759",0
"760",0.00577764370952794
"761",0.000732994213878735
"762",0.208009221935101
"763",4.1292436980811e-07
"764",0.0530500211936575
"765",0.402091142957228
"766",0.0108643165974114
"767",3.11895509419458e-10
"768",2.18194162127094e-06
"769",0.00676251181330423
"770",0.00643260442648663
"771",5.87364364423859e-06
"772",0.0972168948430734
"773",0.128904311433523
"774",0
"775",0
"776",0
"777",0.0637534226488032
"778",1.21978142142432e-07
"779",0.00411091389340856
"780",0.0702962467511825
"781",0.084479567621363
"782",0.0489044218638457
"783",9.73554882821581e-06
"784",0.0235030999475144
"785",0.101863888710915
"786",0.00882840069132351
"787",0.0632971986315831
"788",0.0608801246142667
"789",1.2579738226326e-05
"790",0.00126699481666759
"791",0.000711420061494938
"792",0.00225020083646577
"793",8.75357820673273e-08
"794",0.0992851653767663
"795",3.52879691545294e-06
"796",0
"797",0.000497113510844027
"798",9.20756026978609e-10
"799",0.0397805875809158
"800",0.000172899113722758
"801",0
"802",0.149398763437259
"803",0
"804",0.000301285063356804
"805",6.10163285705845e-05
"806",0.00433802207750122
"807",1.77725418826213e-08
"808",7.49256212628779e-11
"809",3.90372819133455e-05
"810",0
"811",0.000120073359836215
"812",0.0795266235992503
"813",1.74068828240337e-08
"814",0.00689677580897063
"815",4.41179273114045e-08
"816",6.57323373987051e-06
"817",0.00917272477938447
"818",0.0932679828532741
"819",1.1850358261345e-07
"820",5.16574011968363e-05
"821",0.0435914930632608
"822",2.22044604925031e-16
"823",6.54617099349331e-06
"824",0.000327189378753423
"825",0.0558406270709594
"826",0.000211057277901383
"827",0.000293994324408908
"828",3.38240270958412e-06
"829",0.0042620407156716
"830",0
"831",0.000187551645347006
"832",9.50844956316699e-05
"833",0.0840464124051565
"834",6.72220308284288e-06
"835",0.0222616970909412
"836",0.378956355584263
"837",0.153727918004441
"838",0
"839",0.585778377014054
"840",0.0806518352214349
"841",2.14464546961501e-05
"842",0.00264944793569555
"843",1.70629670035449e-05
"844",0.110039742513577
"845",0
"846",0
"847",7.37680584079747e-05
"848",0.00477256705473572
"849",0.0745013704499466
"850",0.109387784674611
"851",0.821151904445014
"852",0.798284584493502
"853",0.0261472860885412
"854",0.490360112707951
"855",0.100035774870269
"856",0.273626498051638
"857",0.0614659475891042
"858",1.08801856413265e-14
"859",0.0325571580004727
"860",0.0109684563815184
"861",0
"862",0.000667114792408219
"863",0.00460117479660982
"864",0.00367572459010168
"865",0.217051870533359
"866",0.0459931198591821
"867",1.72658540601445e-05
"868",0.000171127227201473
"869",0.0220704496291649
"870",0.201377444145414
"871",0.00287155394400829
"872",0.00102407462558884
"873",1.17513211383979e-07
"874",0.371524342416649
"875",0.0411052420534351
"876",0.00812897484415831
"877",0.2113791637392
"878",0.00567693419288773
"879",0.0168747337622895
"880",0.00394738016018603
"881",0.100102775231839
"882",0.644563778112642
"883",0.438536047891877
"884",0.43523935680372
"885",0.000224430025617561
"886",0.0122768289948159
"887",0.401087258111605
"888",0
"889",0
"890",0.00053102120009596
"891",0
"892",0
"893",0
"894",2.73359990085043e-05
"895",0.00316766727884443
"896",0
"897",7.44329201571858e-05
"898",0.109255045975081
"899",0.185285910221515
"900",0.635081627975792
"901",0.627501050685061
"902",0.583643305296557
"903",0.00111978136539648
"904",0.0410962446094056
"905",0
"906",0.196615315731441
"907",1.39771686070711e-05
"908",0.117225160781017
"909",0
"910",0
"911",0
"912",0.977699854708554
"913",0
"914",0
"915",7.91364751506762e-11
"916",0.581273888281764
"917",0.93593806843055
"918",0.828031586605083
"919",0.391956476474903
"920",0.40813541149003
"921",0.474805806067573
"922",0.137661207556929
"923",0.691537606536304
"924",0.128109730425709
"925",0.00528510187869269
"926",0.230850593146989
"927",1.22514022193876e-06
"928",7.81014519303236e-05
"929",0.00701764713076769
"930",0
"931",0
"932",0
"933",0.00443174779921185
"934",0.241417505740771
"935",0
"936",2.81801895666289e-05
"937",0.0396905405036174
"938",0
"939",6.39183943799138e-05
"940",0
"941",0
"942",0.00131808808282996
"943",0
"944",0
"945",0
"946",0
"947",3.41115328783559e-06
"948",0.0878652124795334
"949",0.00409662894877005
"950",1.8764564148066e-06
"951",0
"952",0.163255905834812
"953",0.118895022775085
"954",0.035948946840577
"955",0.353768648013176
"956",0.00495666207820922
"957",0.206356523170941
"958",0.0606909440760041
"959",6.495663114503e-06
"960",0.0363167222132351
"961",0.0764216250267333
"962",0.00176854200630716
"963",0
"964",0
"965",0.0429116373016104
"966",1.02461117001962e-06
"967",6.04594698832006e-05
"968",0.00755708033689018
"969",0
"970",0
"971",0
"972",0.000510739286943451
"973",7.83721976205243e-11
"974",4.32349050416558e-05
"975",0.4436090486345
"976",0
"977",0
"978",0
"979",5.40111928359899e-06
"980",0.00912959675545444
"981",0
"982",0.000227291056125289
"983",0.729782207523216
"984",0.115510789135053
"985",2.20195099931431e-08
"986",0
"987",0
"988",8.78929816705565e-08
"989",0.0496827010103067
"990",0.0225784280839478
"991",0.020281950030215
"992",0
"993",0.0389846527824718
"994",0.00262203408407968
"995",6.66365466972518e-06
"996",0
"997",1.12788667294694e-11
"998",0.0132163508909059
"999",1.33226762955019e-15
"1000",0.0383336718496062
"1001",0
"1002",0.0189806494856112
"1003",0.303358717746863
"1004",0.107434857978611
"1005",0.0604895650121666
"1006",5.73969760608861e-11
"1007",0.478744427675689
"1008",0.238406352788361
"1009",0.0072592973396951
"1010",0
"1011",0.00230319799435408
"1012",0
"1013",0.000291809738715454
"1014",0.0012753174629947
"1015",1.65489844050626e-12
"1016",0
"1017",3.3654143805073e-08
"1018",0.498799382605935
"1019",0
"1020",2.1094237467878e-14
"1021",0
"1022",6.22667314043035e-07
"1023",0.015245622438418
"1024",0
"1025",0
"1026",1.49125277904005e-07
"1027",0.0103673169274635
"1028",0.0200752121402296
"1029",0.176137706899873
"1030",0
"1031",0
"1032",0
"1033",0.161935890493889
"1034",5.25567829667839e-05
"1035",0.00765430205785622
"1036",0.00513922733031202
"1037",0.0515555483525809
"1038",0.148625074615381
"1039",0.106336562281231
"1040",0.0159079739783006
"1041",0.109372554804447
"1042",0.0773858692126353
"1043",5.47553249552468e-06
"1044",0.00131230845807973
"1045",0.341355422832709
"1046",0.000902748971667977
"1047",0.000576071639000197
"1048",4.3938042959546e-07
"1049",0.00293684170715203
"1050",0.0456465114473776
"1051",0.0070232611917469
"1052",5.48450174164827e-13
"1053",0
"1054",0
"1055",0.000187426959631254
"1056",4.95225667185295e-05
"1057",1.36706871378678e-08
"1058",0.000103871153218749
"1059",7.43104355827029e-10
"1060",0
"1061",0.165123455084049
"1062",0.00678090589725966
"1063",0
"1064",0
"1065",0.0111314864864152
"1066",6.26165785888588e-14
"1067",0.0581512330862449
"1068",0.0858296114644962
"1069",0.0179057474313035
"1070",0.010801023124776
"1071",0.58951831661352
"1072",0.777075935430703
"1073",0.00359878954306281
"1074",0.00395750149601426
"1075",0
"1076",0.16428513150134
"1077",0.0166171565212688
"1078",0.0295360342083506
"1079",0
"1080",0.236891326912115
"1081",0.00176074740013765
"1082",0.123916475512425
"1083",0
"1084",0
"1085",0.0559724724359666
"1086",0.000341329270188817
"1087",0.192164714069482
"1088",0.272288211910254
"1089",0.000635170101712546
"1090",0.551505896545056
"1091",0.563217807686163
"1092",0.121997346407095
"1093",0.137795194238868
"1094",0
"1095",1.20639120326782e-06
"1096",0.035444443314998
"1097",0.00884399636059174
"1098",3.84176030254757e-06
"1099",0.00738375597011698
"1100",0.00549399580223875
"1101",0.086267950340149
"1102",6.79012401860746e-13
"1103",5.45403113672016e-07
"1104",0.400326483212141
"1105",1.5191270752446e-07
"1106",0
"1107",2.60517871031318e-06
"1108",0.0163844774914683
"1109",0.818392191011953
"1110",0.000300847866536502
"1111",0
"1112",0
"1113",0.00441550271388991
"1114",0.00228398165611976
"1115",4.24216217709272e-13
"1116",0
"1117",5.12068841773683e-08
"1118",0.17500774356774
"1119",0.00502272342433907
"1120",0.204747166505477
"1121",9.92753501627419e-09
"1122",0.00644086546683875
"1123",0.00154746834698083
"1124",6.04522142810815e-05
"1125",0.012247780097708
"1126",0.0752373412013736
"1127",1.04074579195812e-05
"1128",0.00753605168906601
"1129",0.013072944903959
"1130",1.09995398411833e-06
"1131",0.000421087565425471
"1132",0
"1133",0
"1134",0
"1135",0.0467767843879313
"1136",7.28553307649538e-06
"1137",0.0181844208701992
"1138",3.28771187807497e-06
"1139",1.39583455904813e-09
"1140",0
"1141",0
"1142",0
"1143",0.0382549206542302
"1144",0.111686692794284
"1145",8.17849120282599e-06
"1146",0.0155087946248254
"1147",0.0199635561677355
"1148",0.00393169365972879
"1149",0.000127321529169722
"1150",0.0966811827260109
"1151",4.22914051045886e-06
"1152",0.0082196381226497
"1153",0.097103677334237
"1154",0
"1155",0.00123093899738225
"1156",0.430292452664683
"1157",0.000296422441919408
"1158",0
"1159",0
"1160",0
"1161",0
"1162",0
"1163",0.000534784610814243
"1164",0.00179168347670167
"1165",7.32475969552615e-05
"1166",1.46454328758816e-05
"1167",0.000142417546001417
"1168",4.10782519111308e-15
"1169",0
"1170",0
"1171",0.0038286454573645
"1172",0
"1173",0.134438707185767
"1174",0.0178051504728295
"1175",2.57213973342552e-07
"1176",0
"1177",0.343174955658164
"1178",0.0107915268687022
"1179",0.0141114346464367
"1180",0.737396676806135
"1181",0.12151582996379
"1182",0.066810333647141
"1183",0.257048498485436
"1184",0.00103780765859618
"1185",0.00612259879315691
"1186",0
"1187",0.0113472927999549
"1188",0.57484704096991
"1189",0.109637634559522
"1190",0.965023082646346
"1191",0.0200441929599035
"1192",0.0304538331309486
"1193",0.0712766035332812
"1194",0.0275617505733631
"1195",1.68920433196718e-12
"1196",0.000195206817074967
"1197",0.00489848995008346
"1198",0.00574077200987755
"1199",0
"1200",0.000259400625065465
"1201",0
"1202",0
"1203",0
"1204",0
"1205",0
"1206",0
"1207",0
"1208",0
"1209",0
"1210",0
"1211",0
"1212",0
"1213",0
"1214",0
"1215",0
"1216",0
"1217",0
"1218",0
"1219",0
"1220",0
"1221",0
"1222",0
"1223",0
"1224",0
"1225",0
"1226",0
"1227",0
"1228",0
"1229",0
"1230",0
"1231",0
"1232",0
"1233",0
"1234",0
"1235",0
"1236",0
"1237",0
"1238",0
"1239",0
"1240",0
"1241",0
"1242",0
"1243",0
"1244",0
"1245",0
"1246",0
"1247",0
"1248",0
"1249",0
"1250",0
"1251",0
"1252",0
"1253",0
"1254",0
"1255",0
"1256",0
"1257",0
"1258",0
"1259",0
"1260",0
"1261",0
"1262",0
"1263",0
"1264",0
"1265",0
"1266",0
"1267",0
"1268",0
"1269",0
"1270",0
"1271",0
"1272",0
"1273",0
"1274",0
"1275",0
"1276",0
"1277",0
"1278",0
"1279",0
"1280",0
"1281",0
"1282",0
"1283",0
"1284",0
"1285",0
"1286",0
"1287",0
"1288",0
"1289",0
"1290",0
"1291",0
"1292",0
"1293",0
"1294",0
"1295",0
"1296",0
"1297",0
"1298",0
"1299",0
"1300",0
"1301",0
"1302",0
"1303",0
"1304",0
"1305",0
"1306",0
"1307",0
"1308",0
"1309",0
"1310",0
"1311",0
"1312",0
"1313",0
"1314",0
"1315",0
"1316",0
"1317",0
"1318",0
"1319",0
"1320",0
"1321",0
"1322",0
"1323",0
"1324",0
"1325",0
"1326",0
"1327",0
"1328",0
"1329",0
"1330",0
"1331",0
"1332",0
"1333",0
"1334",0
"1335",0
"1336",0
"1337",0
"1338",0
"1339",0
"1340",0
"1341",0
"1342",0
"1343",0
"1344",0
"1345",0
"1346",0
"1347",0
"1348",0
"1349",0
"1350",0
"1351",0
"1352",0
"1353",0
"1354",0
"1355",0
"1356",0
"1357",0
"1358",0
"1359",0
"1360",0
"1361",0
"1362",0
"1363",0
"1364",0
"1365",0
"1366",0
"1367",0
"1368",0
"1369",0
"1370",0
"1371",0
"1372",0
"1373",0
"1374",0
"1375",0
"1376",0
"1377",0
"1378",0
"1379",0
"1380",0
"1381",0
"1382",0
"1383",0
"1384",0
"1385",0
"1386",0
"1387",0
"1388",0
"1389",0
"1390",0
"1391",0
"1392",0
"1393",0
"1394",0
"1395",0
"1396",0
"1397",0
"1398",0
"1399",0
"1400",0
"1401",0
"1402",0
"1403",0
"1404",0
"1405",0
"1406",0
"1407",0
"1408",0
"1409",0
"1410",0
"1411",0
"1412",0
"1413",0
"1414",0
"1415",0
"1416",0
"1417",0
"1418",0
"1419",0
"1420",0
"1421",0
"1422",0
"1423",0
"1424",0
"1425",0
"1426",0
"1427",0
"1428",0
"1429",0
"1430",0
"1431",0
"1432",0
"1433",0
"1434",0
"1435",0
"1436",0
"1437",0
"1438",0
"1439",0
"1440",0
"1441",0
"1442",0
"1443",0
"1444",0
"1445",0
"1446",0
"1447",0
"1448",0
"1449",0
"1450",0
"1451",0
"1452",0
"1453",0
"1454",0
"1455",0
"1456",0
"1457",0
"1458",0
"1459",0
"1460",0
"1461",0
"1462",0
"1463",0
"1464",0
"1465",0
"1466",0
"1467",0
"1468",0
"1469",0
"1470",0
"1471",0
"1472",0
"1473",0
"1474",0
"1475",0
"1476",0
"1477",0
"1478",0
"1479",0
"1480",0
"1481",0
"1482",0
"1483",0
"1484",0
"1485",0
"1486",0
"1487",0
"1488",0
"1489",0
"1490",0
"1491",0
"1492",0
"1493",0
"1494",0
"1495",0
"1496",0
"1497",0
"1498",0
"1499",0
"1500",0
"1501",0
"1502",0
"1503",0
"1504",0
"1505",0
"1506",0
"1507",0
"1508",0
"1509",0
"1510",0
"1511",0
"1512",0
"1513",0
"1514",0
"1515",0
"1516",0
"1517",0
"1518",0
"1519",0
"1520",0
"1521",0
"1522",0
"1523",0
"1524",0
"1525",0
"1526",0
"1527",0
"1528",0
"1529",0
"1530",0
"1531",0
"1532",0
"1533",0
"1534",0
"1535",0
"1536",0
"1537",0
"1538",0
"1539",0
"1540",0
"1541",0
"1542",0
"1543",0
"1544",0
"1545",0
"1546",0
"1547",0
"1548",0
"1549",0
"1550",0
"1551",0
"1552",0
"1553",0
"1554",0
"1555",0
"1556",0
"1557",0
"1558",0
"1559",0
"1560",0
"1561",0
"1562",0
"1563",0
"1564",0
"1565",0
"1566",0
"1567",0
"1568",0
"1569",0
"1570",0
"1571",0
"1572",0
"1573",0
"1574",0
"1575",0
"1576",0
"1577",0
"1578",0
"1579",0
"1580",0
"1581",0
"1582",0
"1583",0
"1584",0
"1585",0
"1586",0
"1587",0
"1588",0
"1589",0
"1590",0
"1591",0
"1592",0
"1593",0
"1594",0
"1595",0
"1596",0
"1597",0
"1598",0
"1599",0
"1600",0
"1601",0
"1602",0
"1603",0
"1604",0
"1605",0
"1606",0
"1607",0
"1608",0
"1609",0
"1610",0
"1611",0
"1612",0
"1613",0
"1614",0
"1615",0
"1616",0
"1617",0
"1618",0
"1619",0
"1620",0
"1621",0
"1622",0
"1623",0
"1624",0
"1625",0
"1626",0
"1627",0
"1628",0
"1629",0
"1630",0
"1631",0
"1632",0
"1633",0
"1634",0
"1635",0
"1636",0
"1637",0
"1638",0
"1639",0
"1640",0
"1641",0
"1642",0
"1643",0
"1644",0
"1645",0
"1646",0
"1647",0
"1648",0
"1649",0
"1650",0
"1651",0
"1652",0
"1653",0
"1654",0
"1655",0
"1656",0
"1657",0
"1658",0
"1659",0
"1660",0
"1661",0
"1662",0
"1663",0
"1664",0
"1665",0
"1666",0
"1667",0
"1668",0
"1669",0
"1670",0
"1671",0
"1672",0
"1673",0
"1674",0
"1675",0
"1676",0
"1677",0
"1678",0
"1679",0
"1680",0
"1681",0
"1682",0
"1683",0
"1684",0
"1685",0
"1686",0
"1687",0
"1688",0
"1689",0
"1690",0
"1691",0
"1692",0
"1693",0
"1694",0
"1695",0
"1696",0
"1697",0
"1698",0
"1699",0
"1700",0
"1701",0
"1702",0
"1703",0
"1704",0
"1705",0
"1706",0
"1707",0
"1708",0
"1709",0
"1710",0
"1711",0
"1712",0
"1713",0
"1714",0
"1715",0
"1716",0
"1717",0
"1718",0
"1719",0
"1720",0
"1721",0
"1722",0
"1723",0
"1724",0
"1725",0
"1726",0
"1727",0
"1728",0
"1729",0
"1730",0
"1731",0
"1732",0
"1733",0
"1734",0
"1735",0
"1736",0
"1737",0
"1738",0
"1739",0
"1740",0
"1741",0
"1742",0
"1743",0
"1744",0
"1745",0
"1746",0
"1747",0
"1748",0
"1749",0
"1750",0
"1751",0
"1752",0
"1753",0
"1754",0
"1755",0
"1756",0
"1757",0
"1758",0
"1759",0
"1760",0
"1761",0
"1762",0
"1763",0
"1764",0
"1765",0
"1766",0
"1767",0
"1768",0
"1769",0
"1770",0
"1771",0
"1772",0
"1773",0
"1774",0
"1775",0
"1776",0
"1777",0
"1778",0
"1779",0
"1780",0
"1781",0
"1782",0
"1783",0
"1784",0
"1785",0
"1786",0
"1787",0
"1788",0
"1789",0
"1790",0
"1791",0
"1792",0
"1793",0
"1794",0
"1795",0
"1796",0
"1797",0
"1798",0
"1799",0
"1800",0
"1801",0
"1802",0
"1803",0
"1804",0
"1805",0
"1806",0
"1807",0
"1808",0
"1809",0
"1810",0
"1811",0
"1812",0
"1813",0
"1814",0
"1815",0
"1816",0
"1817",0
"1818",0
"1819",0
"1820",0
"1821",0
"1822",0
"1823",0
"1824",0
"1825",0
"1826",0
"1827",0
"1828",0
"1829",0
"1830",0
"1831",0
"1832",0
"1833",0
"1834",0
"1835",0
"1836",0
"1837",0
"1838",0
"1839",0
"1840",0
"1841",0
"1842",0
"1843",0
"1844",0
"1845",0
"1846",0
"1847",0
"1848",0
"1849",0
"1850",0
"1851",0
"1852",0
"1853",0
"1854",0
"1855",0
"1856",0
"1857",0
"1858",0
"1859",0
"1860",0
"1861",0
"1862",0
"1863",0
"1864",0
"1865",0
"1866",0
"1867",0
"1868",0
"1869",0
"1870",0
"1871",0
"1872",0
"1873",0
"1874",0
"1875",0
"1876",0
"1877",0
"1878",0
"1879",0
"1880",0
"1881",0
"1882",0
"1883",0
"1884",0
"1885",0
"1886",0
"1887",0
"1888",0
"1889",0
"1890",0
"1891",0
"1892",0
"1893",0
"1894",0
"1895",0
"1896",0
"1897",0
"1898",0
"1899",0
"1900",0
"1901",0
"1902",0
"1903",0
"1904",0
"1905",0
"1906",0
"1907",0
"1908",0
"1909",0
"1910",0
"1911",0
"1912",0
"1913",0
"1914",0
"1915",0
"1916",0
"1917",0
"1918",0
"1919",0
"1920",0
"1921",0
"1922",0
"1923",0
"1924",0
"1925",0
"1926",0
"1927",0
"1928",0
"1929",0
"1930",0
"1931",0
"1932",0
"1933",0
"1934",0
"1935",0
"1936",0
"1937",0
"1938",0
"1939",0
"1940",0
"1941",0
"1942",0
"1943",0
"1944",0
"1945",0
"1946",0
"1947",0
"1948",0
"1949",0
"1950",0
"1951",0
"1952",0
"1953",0
"1954",0
"1955",0
"1956",0
"1957",0
"1958",0
"1959",0
"1960",0
"1961",0
"1962",0
"1963",0
"1964",0
"1965",0
"1966",0
"1967",0
"1968",0
"1969",0
"1970",0
"1971",0
"1972",0
"1973",0
"1974",0
"1975",0
"1976",0
"1977",0
"1978",0
"1979",0
"1980",0
"1981",0
"1982",0
"1983",0
"1984",0
"1985",0
"1986",0
"1987",0
"1988",0
"1989",0
"1990",0
"1991",0
"1992",0
"1993",0
"1994",0
"1995",0
"1996",0
"1997",0
"1998",0
"1999",0
"2000",0
"2001",0
"2002",0
"2003",0
"2004",0
"2005",0
"2006",0
"2007",0
"2008",0
"2009",0
"2010",0
"2011",0
"2012",0
"2013",0
"2014",0
"2015",0
"2016",0
"2017",0
"2018",0
"2019",0
"2020",0
"2021",0
"2022",0
"2023",0
"2024",0
"2025",0
"2026",0
"2027",0
"2028",0
"2029",0
"2030",0
"2031",0
"2032",0
"2033",0
"2034",0
"2035",0
"2036",0
"2037",0
"2038",0
"2039",0
"2040",0
"2041",0
"2042",0
"2043",0
"2044",0
"2045",0
"2046",0
"2047",0
"2048",0
"2049",0
"2050",0
"2051",0
"2052",0
"2053",0
"2054",0
"2055",0
"2056",0
"2057",0
"2058",0
"2059",0
"2060",0
"2061",0
"2062",0
"2063",0
"2064",0
"2065",0
"2066",0
"2067",0
"2068",0
"2069",0
"2070",0
"2071",0
"2072",0
"2073",0
"2074",0
"2075",0
"2076",0
"2077",0
"2078",0
"2079",0
"2080",0
"2081",0
"2082",0
"2083",0
"2084",0
"2085",0
"2086",0
"2087",0
"2088",0
"2089",0
"2090",0
"2091",0
"2092",0
"2093",0
"2094",0
"2095",0
"2096",0
"2097",0
"2098",0
"2099",0
"2100",0
"2101",0
"2102",0
"2103",0
"2104",0
"2105",0
"2106",0
"2107",0
"2108",0
"2109",0
"2110",0
"2111",0
"2112",0
"2113",0
"2114",0
"2115",0
"2116",0
"2117",0
"2118",0
"2119",0
"2120",0
"2121",0
"2122",0
"2123",0
"2124",0
"2125",0
"2126",0
"2127",0
"2128",0
"2129",0
"2130",0
"2131",0
"2132",0
"2133",0
"2134",0
"2135",0
"2136",0
"2137",0
"2138",0
"2139",0
"2140",0
"2141",0
"2142",0
"2143",0
"2144",0
"2145",0
"2146",0
"2147",0
"2148",0
"2149",0
"2150",0
"2151",0
"2152",0
"2153",0
"2154",0
"2155",0
"2156",0
"2157",0
"2158",0
"2159",0
"2160",0
"2161",0
"2162",0
"2163",0
"2164",0
"2165",0
"2166",0
"2167",0
"2168",0
"2169",0
"2170",0
"2171",0
"2172",0
"2173",0
"2174",0
"2175",0
"2176",0
"2177",0
"2178",0
"2179",0
"2180",0
"2181",0
"2182",0
"2183",0
"2184",0
"2185",0
"2186",0
"2187",0
"2188",0
"2189",0
"2190",0
"2191",0
"2192",0
"2193",0
"2194",0
"2195",0
"2196",0
"2197",0
"2198",0
"2199",0
"2200",0
"2201",0
"2202",0
"2203",0
"2204",0
"2205",0
"2206",0
"2207",0
"2208",0
"2209",0
"2210",0
"2211",0
"2212",0
"2213",0
"2214",0
"2215",0
"2216",0
"2217",0
"2218",0
"2219",0
"2220",0
"2221",0
"2222",0
"2223",0
"2224",0
"2225",0
"2226",0
"2227",0
"2228",0
"2229",0
"2230",0
"2231",0
"2232",0
"2233",0
"2234",0
"2235",0
"2236",0
"2237",0
"2238",0
"2239",0
"2240",0
"2241",0
"2242",0
"2243",0
"2244",0
"2245",0
"2246",0
"2247",0
"2248",0
"2249",0
"2250",0
"2251",0
"2252",0
"2253",0
"2254",0
"2255",0
"2256",0
"2257",0
"2258",0
"2259",0
"2260",0
"2261",0
"2262",0
"2263",0
"2264",0
"2265",0
"2266",0
"2267",0
"2268",0
"2269",0
"2270",0
"2271",0
"2272",0
"2273",0
"2274",0
"2275",0
"2276",0
"2277",0
"2278",0
"2279",0
"2280",0
"2281",0
"2282",0
"2283",0
"2284",0
"2285",0
"2286",0
"2287",0
"2288",0
"2289",0
"2290",0
"2291",0
"2292",0
"2293",0
"2294",0
"2295",0
"2296",0
"2297",0
"2298",0
"2299",0
"2300",0
"2301",0
"2302",0
"2303",0
"2304",0
"2305",0
"2306",0
"2307",0
"2308",0
"2309",0
"2310",0
"2311",0
"2312",0
"2313",0
"2314",0
"2315",0
"2316",0
"2317",0
"2318",0
"2319",0
"2320",0
"2321",0
"2322",0
"2323",0
"2324",0
"2325",0
"2326",0
"2327",0
"2328",0
"2329",0
"2330",0
"2331",0
"2332",0
"2333",0
"2334",0
"2335",0
"2336",0
"2337",0
"2338",0
"2339",0
"2340",0
"2341",0
"2342",0
"2343",0
"2344",0
"2345",0
"2346",0
"2347",0
"2348",0
"2349",0
"2350",0
"2351",0
"2352",0
"2353",0
"2354",0
"2355",0
"2356",0
"2357",0
"2358",0
"2359",0
"2360",0
"2361",0
"2362",0
"2363",0
"2364",0
"2365",0
"2366",0
"2367",0
"2368",0
"2369",0
"2370",0
"2371",0
"2372",0
"2373",0
"2374",0
"2375",0
"2376",0
"2377",0
"2378",0
"2379",0
"2380",0
"2381",0
"2382",0
"2383",0
"2384",0
"2385",0
"2386",0
"2387",0
"2388",0
"2389",0
"2390",0
"2391",0
"2392",0
"2393",0
"2394",0
"2395",0
"2396",0
"2397",0
"2398",0
"2399",0
"2400",0
"2401",0
"2402",0
"2403",0
"2404",0
"2405",0
"2406",0
"2407",0
"2408",0
"2409",0
"2410",0
"2411",0
"2412",0
"2413",0
"2414",0
"2415",0
"2416",0
"2417",0
"2418",0
"2419",0
"2420",0
"2421",0
"2422",0
"2423",0
"2424",0
"2425",0
"2426",0
"2427",0
"2428",0
"2429",0
"2430",0
"2431",0
"2432",0
"2433",0
"2434",0
"2435",0
"2436",0
"2437",0
"2438",0
"2439",0
"2440",0
"2441",0
"2442",0
"2443",0
"2444",0
"2445",0
"2446",0
"2447",0
"2448",0
"2449",0
"2450",0
"2451",0
"2452",0
"2453",0
"2454",0
"2455",0
"2456",0
"2457",0
"2458",0
"2459",0
"2460",0
"2461",0
"2462",0
"2463",0
"2464",0
"2465",0
"2466",0
"2467",0
"2468",0
"2469",0
"2470",0
"2471",0
"2472",0
"2473",0
"2474",0
"2475",0
"2476",0
"2477",0
"2478",0
"2479",0
"2480",0
"2481",0
"2482",0
"2483",0
"2484",0
"2485",0
"2486",0
"2487",0
"2488",0
"2489",0
"2490",0
"2491",0
"2492",0
"2493",0
"2494",0
"2495",0
"2496",0
"2497",0
"2498",0
"2499",0
"2500",0
"2501",0
"2502",0
"2503",0
"2504",0
"2505",0
"2506",0
"2507",0
"2508",0
"2509",0
"2510",0
"2511",0
"2512",0
"2513",0
"2514",0
"2515",0
"2516",0
"2517",0
"2518",0
"2519",0
"2520",0
"2521",0
"2522",0
"2523",0
"2524",0
"2525",0
"2526",0
"2527",0
"2528",0
"2529",0
"2530",0
"2531",0
"2532",0
"2533",0
"2534",0
"2535",0
"2536",0
"2537",0
"2538",0
"2539",0
"2540",0
"2541",0
"2542",0
"2543",0
"2544",0
"2545",0
"2546",0
"2547",0
"2548",0
"2549",0
"2550",0
"2551",0
"2552",0
"2553",0
"2554",0
"2555",0
"2556",0
"2557",0
"2558",0
"2559",0
"2560",0
"2561",0
"2562",0
"2563",0
"2564",0
"2565",0
"2566",0
"2567",0
"2568",0
"2569",0
"2570",0
"2571",0
"2572",0
"2573",0
"2574",0
"2575",0
"2576",0
"2577",0
"2578",0
"2579",0
"2580",0
"2581",0
"2582",0
"2583",0
"2584",0
"2585",0
"2586",0
"2587",0
"2588",0
"2589",0
"2590",0
"2591",0
"2592",0
"2593",0
"2594",0
"2595",0
"2596",0
"2597",0
"2598",0
"2599",0
"2600",0
"2601",0
"2602",0
"2603",0
"2604",0
"2605",0
"2606",0
"2607",0
"2608",0
"2609",0
"2610",0
"2611",0
"2612",0
"2613",0
"2614",0
"2615",0
"2616",0
"2617",0
"2618",0
"2619",0
"2620",0
"2621",0
"2622",0
"2623",0
"2624",0
"2625",0
"2626",0
"2627",0
"2628",0
"2629",0
"2630",0
"2631",0
"2632",0
"2633",0
"2634",0
"2635",0
"2636",0
"2637",0
"2638",0
"2639",0
"2640",0
"2641",0
"2642",0
"2643",0
"2644",0
"2645",0
"2646",0
"2647",0
"2648",0
"2649",0
"2650",0
"2651",0
"2652",0
"2653",0
"2654",0
"2655",0
"2656",0
"2657",0
"2658",0
"2659",0
"2660",0
"2661",0
"2662",0
"2663",0
"2664",0
"2665",0
"2666",0
"2667",0
"2668",0
"2669",0
"2670",0
"2671",0
"2672",0
"2673",0
"2674",0
"2675",0
"2676",0
"2677",0
"2678",0
"2679",0
"2680",0
"2681",0
"2682",0
"2683",0
"2684",0
"2685",0
"2686",0
"2687",0
"2688",0
"2689",0
"2690",0
"2691",0
"2692",0
"2693",0
"2694",0
"2695",0
"2696",0
"2697",0
"2698",0
"2699",0
"2700",0
"2701",0
"2702",0
"2703",0
"2704",0
"2705",0
"2706",0
"2707",0
"2708",0
"2709",0
"2710",0
"2711",0
"2712",0
"2713",0
"2714",0
"2715",0
"2716",0
"2717",0
"2718",0
"2719",0
"2720",0
"2721",0
"2722",0
"2723",0
